# OpenSignals Text File Format. Version 1
# {"98:D3:71:FE:38:C0": {"position": 0, "device": "bitalino_rev", "device name": "98:D3:71:FE:38:C0", "device connection": "98:D3:71:FE:38:C0", "sampling rate": 1000, "resolution": [4, 1, 1, 1, 1, 10, 10], "firmware version": 1282, "comments": "PULGAR - MEÑIQUE", "keywords": "", "mode": 0, "sync interval": 2, "date": "2026-9-4", "time": "12:16:49.455", "channels": [1, 2], "sensor": ["EMGBITREV", "RAW"], "label": ["A1", "A2"], "column": ["nSeq", "I1", "I2", "O1", "O2", "A1", "A2"], "special": [{}, {}], "digital IO": [0, 0, 1, 1]}}
# EndOfHeader
0	0	0	0	0	512	1	
1	0	0	0	0	513	1	
2	0	0	0	0	512	1	
3	0	0	0	0	511	1	
4	0	0	0	0	510	1	
5	0	0	0	0	510	1	
6	0	0	0	0	511	2	
7	0	0	0	0	510	1	
8	0	0	0	0	510	1	
9	0	0	0	0	509	1	
10	0	0	0	0	510	1	
11	0	0	0	0	508	1	
12	0	0	0	0	508	1	
13	0	0	0	0	508	1	
14	0	0	0	0	507	2	
15	0	0	0	0	507	1	
0	0	0	0	0	508	1	
1	0	0	0	0	509	1	
2	0	0	0	0	511	1	
3	0	0	0	0	511	1	
4	0	0	0	0	510	1	
5	0	0	0	0	511	1	
6	0	0	0	0	511	2	
7	0	0	0	0	510	1	
8	0	0	0	0	511	1	
9	0	0	0	0	509	1	
10	0	0	0	0	511	1	
11	0	0	0	0	508	1	
12	0	0	0	0	509	1	
13	0	0	0	0	508	1	
14	0	0	0	0	509	2	
15	0	0	0	0	508	1	
0	0	0	0	0	509	0	
1	0	0	0	0	510	1	
2	0	0	0	0	509	1	
3	0	0	0	0	511	1	
4	0	0	0	0	511	1	
5	0	0	0	0	511	1	
6	0	0	0	0	512	2	
7	0	0	0	0	511	1	
8	0	0	0	0	510	1	
9	0	0	0	0	508	1	
10	0	0	0	0	509	1	
11	0	0	0	0	509	1	
12	0	0	0	0	507	1	
13	0	0	0	0	508	1	
14	0	0	0	0	508	2	
15	0	0	0	0	508	1	
0	0	0	0	0	508	0	
1	0	0	0	0	510	1	
2	0	0	0	0	508	1	
3	0	0	0	0	511	1	
4	0	0	0	0	510	1	
5	0	0	0	0	512	1	
6	0	0	0	0	512	2	
7	0	0	0	0	511	2	
8	0	0	0	0	511	1	
9	0	0	0	0	509	1	
10	0	0	0	0	508	1	
11	0	0	0	0	506	1	
12	0	0	0	0	507	1	
13	0	0	0	0	507	1	
14	0	0	0	0	511	2	
15	0	0	0	0	510	1	
0	0	0	0	0	510	1	
1	0	0	0	0	510	1	
2	0	0	0	0	509	1	
3	0	0	0	0	510	1	
4	0	0	0	0	511	1	
5	0	0	0	0	510	1	
6	0	0	0	0	512	2	
7	0	0	0	0	512	1	
8	0	0	0	0	511	1	
9	0	0	0	0	511	1	
10	0	0	0	0	510	1	
11	0	0	0	0	508	1	
12	0	0	0	0	509	1	
13	0	0	0	0	508	1	
14	0	0	0	0	508	2	
15	0	0	0	0	508	1	
0	0	0	0	0	509	1	
1	0	0	0	0	509	1	
2	0	0	0	0	509	1	
3	0	0	0	0	511	1	
4	0	0	0	0	511	1	
5	0	0	0	0	511	1	
6	0	0	0	0	512	2	
7	0	0	0	0	510	1	
8	0	0	0	0	512	0	
9	0	0	0	0	509	1	
10	0	0	0	0	509	1	
11	0	0	0	0	508	1	
12	0	0	0	0	509	1	
13	0	0	0	0	508	1	
14	0	0	0	0	511	2	
15	0	0	0	0	511	1	
0	0	0	0	0	509	1	
1	0	0	0	0	508	1	
2	0	0	0	0	509	1	
3	0	0	0	0	508	1	
4	0	0	0	0	509	1	
5	0	0	0	0	511	1	
6	0	0	0	0	510	2	
7	0	0	0	0	510	1	
8	0	0	0	0	510	1	
9	0	0	0	0	508	1	
10	0	0	0	0	511	1	
11	0	0	0	0	510	1	
12	0	0	0	0	510	1	
13	0	0	0	0	508	1	
14	0	0	0	0	510	2	
15	0	0	0	0	511	1	
0	0	0	0	0	508	1	
1	0	0	0	0	507	1	
2	0	0	0	0	507	1	
3	0	0	0	0	508	1	
4	0	0	0	0	508	1	
5	0	0	0	0	509	1	
6	0	0	0	0	511	2	
7	0	0	0	0	512	1	
8	0	0	0	0	511	1	
9	0	0	0	0	512	1	
10	0	0	0	0	510	1	
11	0	0	0	0	511	1	
12	0	0	0	0	509	1	
13	0	0	0	0	510	1	
14	0	0	0	0	507	2	
15	0	0	0	0	508	1	
0	0	0	0	0	509	1	
1	0	0	0	0	508	1	
2	0	0	0	0	507	1	
3	0	0	0	0	508	1	
4	0	0	0	0	509	1	
5	0	0	0	0	510	1	
6	0	0	0	0	512	2	
7	0	0	0	0	511	1	
8	0	0	0	0	513	1	
9	0	0	0	0	513	1	
10	0	0	0	0	512	1	
11	0	0	0	0	510	1	
12	0	0	0	0	510	1	
13	0	0	0	0	510	1	
14	0	0	0	0	508	2	
15	0	0	0	0	508	1	
0	0	0	0	0	507	1	
1	0	0	0	0	508	1	
2	0	0	0	0	510	1	
3	0	0	0	0	508	1	
4	0	0	0	0	509	1	
5	0	0	0	0	510	1	
6	0	0	0	0	509	2	
7	0	0	0	0	509	1	
8	0	0	0	0	510	1	
9	0	0	0	0	512	1	
10	0	0	0	0	510	1	
11	0	0	0	0	512	1	
12	0	0	0	0	510	1	
13	0	0	0	0	509	1	
14	0	0	0	0	511	1	
15	0	0	0	0	509	1	
0	0	0	0	0	508	1	
1	0	0	0	0	508	1	
2	0	0	0	0	508	1	
3	0	0	0	0	508	1	
4	0	0	0	0	508	1	
5	0	0	0	0	507	1	
6	0	0	0	0	509	1	
7	0	0	0	0	509	1	
8	0	0	0	0	510	1	
9	0	0	0	0	510	1	
10	0	0	0	0	510	1	
11	0	0	0	0	511	1	
12	0	0	0	0	511	1	
13	0	0	0	0	510	1	
14	0	0	0	0	511	1	
15	0	0	0	0	511	1	
0	0	0	0	0	511	1	
1	0	0	0	0	510	1	
2	0	0	0	0	508	1	
3	0	0	0	0	508	1	
4	0	0	0	0	508	1	
5	0	0	0	0	508	1	
6	0	0	0	0	508	2	
7	0	0	0	0	509	1	
8	0	0	0	0	510	1	
9	0	0	0	0	509	1	
10	0	0	0	0	511	1	
11	0	0	0	0	511	1	
12	0	0	0	0	511	1	
13	0	0	0	0	512	1	
14	0	0	0	0	509	2	
15	0	0	0	0	509	1	
0	0	0	0	0	510	1	
1	0	0	0	0	510	1	
2	0	0	0	0	508	1	
3	0	0	0	0	510	1	
4	0	0	0	0	510	1	
5	0	0	0	0	510	1	
6	0	0	0	0	508	2	
7	0	0	0	0	508	1	
8	0	0	0	0	511	1	
9	0	0	0	0	510	1	
10	0	0	0	0	509	1	
11	0	0	0	0	510	1	
12	0	0	0	0	510	1	
13	0	0	0	0	512	1	
14	0	0	0	0	511	2	
15	0	0	0	0	509	1	
0	0	0	0	0	509	1	
1	0	0	0	0	510	1	
2	0	0	0	0	508	1	
3	0	0	0	0	507	1	
4	0	0	0	0	508	1	
5	0	0	0	0	508	1	
6	0	0	0	0	509	2	
7	0	0	0	0	510	1	
8	0	0	0	0	511	1	
9	0	0	0	0	510	1	
10	0	0	0	0	509	1	
11	0	0	0	0	510	1	
12	0	0	0	0	511	1	
13	0	0	0	0	510	1	
14	0	0	0	0	511	2	
15	0	0	0	0	511	1	
0	0	0	0	0	510	1	
1	0	0	0	0	511	1	
2	0	0	0	0	510	1	
3	0	0	0	0	509	1	
4	0	0	0	0	510	1	
5	0	0	0	0	510	1	
6	0	0	0	0	507	2	
7	0	0	0	0	510	1	
8	0	0	0	0	510	1	
9	0	0	0	0	510	1	
10	0	0	0	0	509	1	
11	0	0	0	0	512	1	
12	0	0	0	0	510	1	
13	0	0	0	0	509	2	
14	0	0	0	0	509	2	
15	0	0	0	0	510	1	
0	0	0	0	0	510	1	
1	0	0	0	0	510	1	
2	0	0	0	0	508	1	
3	0	0	0	0	506	1	
4	0	0	0	0	509	1	
5	0	0	0	0	507	1	
6	0	0	0	0	508	2	
7	0	0	0	0	508	1	
8	0	0	0	0	510	0	
9	0	0	0	0	509	1	
10	0	0	0	0	508	1	
11	0	0	0	0	511	1	
12	0	0	0	0	510	1	
13	0	0	0	0	511	1	
14	0	0	0	0	511	2	
15	0	0	0	0	511	1	
0	0	0	0	0	510	0	
1	0	0	0	0	511	1	
2	0	0	0	0	509	1	
3	0	0	0	0	509	1	
4	0	0	0	0	510	1	
5	0	0	0	0	507	1	
6	0	0	0	0	508	2	
7	0	0	0	0	509	1	
8	0	0	0	0	508	0	
9	0	0	0	0	510	1	
10	0	0	0	0	511	1	
11	0	0	0	0	511	1	
12	0	0	0	0	511	1	
13	0	0	0	0	512	1	
14	0	0	0	0	511	2	
15	0	0	0	0	510	1	
0	0	0	0	0	511	1	
1	0	0	0	0	509	1	
2	0	0	0	0	510	1	
3	0	0	0	0	509	1	
4	0	0	0	0	510	1	
5	0	0	0	0	509	1	
6	0	0	0	0	509	2	
7	0	0	0	0	507	1	
8	0	0	0	0	508	1	
9	0	0	0	0	510	1	
10	0	0	0	0	511	1	
11	0	0	0	0	510	1	
12	0	0	0	0	509	1	
13	0	0	0	0	511	1	
14	0	0	0	0	511	2	
15	0	0	0	0	511	1	
0	0	0	0	0	510	1	
1	0	0	0	0	510	1	
2	0	0	0	0	511	1	
3	0	0	0	0	510	1	
4	0	0	0	0	510	1	
5	0	0	0	0	509	1	
6	0	0	0	0	507	2	
7	0	0	0	0	506	1	
8	0	0	0	0	509	0	
9	0	0	0	0	510	1	
10	0	0	0	0	509	1	
11	0	0	0	0	509	1	
12	0	0	0	0	510	1	
13	0	0	0	0	512	1	
14	0	0	0	0	512	2	
15	0	0	0	0	509	1	
0	0	0	0	0	511	0	
1	0	0	0	0	511	1	
2	0	0	0	0	510	1	
3	0	0	0	0	511	1	
4	0	0	0	0	509	1	
5	0	0	0	0	509	1	
6	0	0	0	0	508	2	
7	0	0	0	0	510	1	
8	0	0	0	0	508	1	
9	0	0	0	0	506	1	
10	0	0	0	0	509	1	
11	0	0	0	0	508	1	
12	0	0	0	0	510	1	
13	0	0	0	0	511	1	
14	0	0	0	0	512	2	
15	0	0	0	0	511	1	
0	0	0	0	0	512	1	
1	0	0	0	0	510	1	
2	0	0	0	0	511	1	
3	0	0	0	0	509	1	
4	0	0	0	0	511	1	
5	0	0	0	0	508	1	
6	0	0	0	0	507	2	
7	0	0	0	0	508	1	
8	0	0	0	0	509	1	
9	0	0	0	0	507	1	
10	0	0	0	0	509	1	
11	0	0	0	0	508	1	
12	0	0	0	0	510	1	
13	0	0	0	0	510	1	
14	0	0	0	0	510	2	
15	0	0	0	0	511	1	
0	0	0	0	0	510	1	
1	0	0	0	0	511	1	
2	0	0	0	0	511	1	
3	0	0	0	0	510	1	
4	0	0	0	0	511	1	
5	0	0	0	0	510	1	
6	0	0	0	0	511	2	
7	0	0	0	0	510	1	
8	0	0	0	0	510	1	
9	0	0	0	0	510	1	
10	0	0	0	0	508	1	
11	0	0	0	0	509	1	
12	0	0	0	0	510	1	
13	0	0	0	0	510	1	
14	0	0	0	0	508	2	
15	0	0	0	0	510	1	
0	0	0	0	0	510	1	
1	0	0	0	0	510	1	
2	0	0	0	0	510	1	
3	0	0	0	0	510	1	
4	0	0	0	0	510	1	
5	0	0	0	0	510	1	
6	0	0	0	0	511	2	
7	0	0	0	0	509	1	
8	0	0	0	0	507	1	
9	0	0	0	0	508	1	
10	0	0	0	0	507	1	
11	0	0	0	0	509	1	
12	0	0	0	0	508	1	
13	0	0	0	0	508	1	
14	0	0	0	0	509	2	
15	0	0	0	0	510	1	
0	0	0	0	0	511	1	
1	0	0	0	0	511	1	
2	0	0	0	0	511	1	
3	0	0	0	0	512	1	
4	0	0	0	0	510	1	
5	0	0	0	0	509	1	
6	0	0	0	0	509	2	
7	0	0	0	0	508	1	
8	0	0	0	0	510	1	
9	0	0	0	0	508	1	
10	0	0	0	0	509	1	
11	0	0	0	0	508	1	
12	0	0	0	0	505	1	
13	0	0	0	0	508	1	
14	0	0	0	0	509	1	
15	0	0	0	0	508	1	
0	0	0	0	0	511	1	
1	0	0	0	0	511	1	
2	0	0	0	0	512	1	
3	0	0	0	0	510	1	
4	0	0	0	0	510	1	
5	0	0	0	0	511	1	
6	0	0	0	0	511	1	
7	0	0	0	0	511	1	
8	0	0	0	0	510	1	
9	0	0	0	0	509	1	
10	0	0	0	0	510	1	
11	0	0	0	0	507	1	
12	0	0	0	0	508	1	
13	0	0	0	0	509	1	
14	0	0	0	0	508	2	
15	0	0	0	0	508	1	
0	0	0	0	0	511	1	
1	0	0	0	0	511	1	
2	0	0	0	0	510	1	
3	0	0	0	0	511	1	
4	0	0	0	0	511	1	
5	0	0	0	0	510	1	
6	0	0	0	0	511	2	
7	0	0	0	0	511	1	
8	0	0	0	0	510	1	
9	0	0	0	0	509	1	
10	0	0	0	0	509	1	
11	0	0	0	0	510	1	
12	0	0	0	0	508	1	
13	0	0	0	0	509	1	
14	0	0	0	0	510	2	
15	0	0	0	0	509	1	
0	0	0	0	0	508	1	
1	0	0	0	0	509	1	
2	0	0	0	0	509	1	
3	0	0	0	0	510	1	
4	0	0	0	0	512	1	
5	0	0	0	0	511	1	
6	0	0	0	0	511	2	
7	0	0	0	0	511	1	
8	0	0	0	0	512	1	
9	0	0	0	0	510	1	
10	0	0	0	0	508	1	
11	0	0	0	0	507	1	
12	0	0	0	0	508	1	
13	0	0	0	0	509	1	
14	0	0	0	0	510	2	
15	0	0	0	0	508	1	
0	0	0	0	0	509	1	
1	0	0	0	0	510	1	
2	0	0	0	0	510	1	
3	0	0	0	0	511	1	
4	0	0	0	0	508	1	
5	0	0	0	0	509	1	
6	0	0	0	0	512	2	
7	0	0	0	0	510	1	
8	0	0	0	0	509	1	
9	0	0	0	0	510	1	
10	0	0	0	0	508	1	
11	0	0	0	0	508	1	
12	0	0	0	0	508	1	
13	0	0	0	0	508	1	
14	0	0	0	0	508	2	
15	0	0	0	0	510	1	
0	0	0	0	0	509	1	
1	0	0	0	0	510	1	
2	0	0	0	0	510	1	
3	0	0	0	0	512	1	
4	0	0	0	0	511	1	
5	0	0	0	0	512	1	
6	0	0	0	0	511	2	
7	0	0	0	0	508	1	
8	0	0	0	0	510	1	
9	0	0	0	0	512	1	
10	0	0	0	0	508	1	
11	0	0	0	0	509	1	
12	0	0	0	0	508	1	
13	0	0	0	0	508	1	
14	0	0	0	0	505	2	
15	0	0	0	0	508	1	
0	0	0	0	0	507	0	
1	0	0	0	0	508	1	
2	0	0	0	0	508	1	
3	0	0	0	0	511	1	
4	0	0	0	0	511	1	
5	0	0	0	0	511	1	
6	0	0	0	0	511	2	
7	0	0	0	0	511	1	
8	0	0	0	0	510	1	
9	0	0	0	0	512	1	
10	0	0	0	0	509	1	
11	0	0	0	0	511	1	
12	0	0	0	0	510	1	
13	0	0	0	0	510	1	
14	0	0	0	0	509	2	
15	0	0	0	0	507	1	
0	0	0	0	0	508	0	
1	0	0	0	0	508	1	
2	0	0	0	0	508	1	
3	0	0	0	0	510	1	
4	0	0	0	0	509	1	
5	0	0	0	0	509	1	
6	0	0	0	0	511	2	
7	0	0	0	0	512	1	
8	0	0	0	0	509	1	
9	0	0	0	0	511	1	
10	0	0	0	0	510	2	
11	0	0	0	0	509	1	
12	0	0	0	0	508	1	
13	0	0	0	0	509	1	
14	0	0	0	0	510	2	
15	0	0	0	0	508	1	
0	0	0	0	0	508	1	
1	0	0	0	0	508	1	
2	0	0	0	0	510	1	
3	0	0	0	0	508	1	
4	0	0	0	0	509	1	
5	0	0	0	0	510	1	
6	0	0	0	0	510	2	
7	0	0	0	0	514	1	
8	0	0	0	0	512	1	
9	0	0	0	0	511	1	
10	0	0	0	0	510	1	
11	0	0	0	0	512	1	
12	0	0	0	0	511	1	
13	0	0	0	0	509	1	
14	0	0	0	0	509	2	
15	0	0	0	0	508	1	
0	0	0	0	0	507	0	
1	0	0	0	0	507	1	
2	0	0	0	0	508	1	
3	0	0	0	0	508	1	
4	0	0	0	0	506	1	
5	0	0	0	0	510	1	
6	0	0	0	0	509	2	
7	0	0	0	0	511	1	
8	0	0	0	0	511	1	
9	0	0	0	0	511	1	
10	0	0	0	0	512	1	
11	0	0	0	0	512	1	
12	0	0	0	0	511	1	
13	0	0	0	0	508	1	
14	0	0	0	0	510	2	
15	0	0	0	0	508	1	
0	0	0	0	0	508	0	
1	0	0	0	0	508	1	
2	0	0	0	0	509	1	
3	0	0	0	0	509	1	
4	0	0	0	0	509	1	
5	0	0	0	0	509	1	
6	0	0	0	0	509	2	
7	0	0	0	0	510	1	
8	0	0	0	0	511	1	
9	0	0	0	0	513	1	
10	0	0	0	0	513	1	
11	0	0	0	0	511	1	
12	0	0	0	0	511	1	
13	0	0	0	0	511	1	
14	0	0	0	0	509	2	
15	0	0	0	0	511	2	
0	0	0	0	0	508	1	
1	0	0	0	0	509	1	
2	0	0	0	0	509	1	
3	0	0	0	0	508	1	
4	0	0	0	0	509	1	
5	0	0	0	0	509	1	
6	0	0	0	0	510	2	
7	0	0	0	0	511	1	
8	0	0	0	0	509	1	
9	0	0	0	0	511	1	
10	0	0	0	0	510	1	
11	0	0	0	0	510	1	
12	0	0	0	0	509	1	
13	0	0	0	0	510	1	
14	0	0	0	0	511	2	
15	0	0	0	0	509	1	
0	0	0	0	0	509	1	
1	0	0	0	0	508	1	
2	0	0	0	0	508	1	
3	0	0	0	0	511	1	
4	0	0	0	0	508	1	
5	0	0	0	0	508	1	
6	0	0	0	0	510	2	
7	0	0	0	0	510	1	
8	0	0	0	0	511	1	
9	0	0	0	0	510	1	
10	0	0	0	0	509	1	
11	0	0	0	0	512	1	
12	0	0	0	0	511	1	
13	0	0	0	0	510	1	
14	0	0	0	0	508	2	
15	0	0	0	0	509	1	
0	0	0	0	0	509	1	
1	0	0	0	0	509	1	
2	0	0	0	0	508	1	
3	0	0	0	0	506	1	
4	0	0	0	0	510	1	
5	0	0	0	0	508	1	
6	0	0	0	0	508	2	
7	0	0	0	0	507	1	
8	0	0	0	0	510	1	
9	0	0	0	0	511	1	
10	0	0	0	0	512	1	
11	0	0	0	0	512	1	
12	0	0	0	0	513	1	
13	0	0	0	0	510	1	
14	0	0	0	0	511	2	
15	0	0	0	0	509	1	
0	0	0	0	0	511	1	
1	0	0	0	0	510	1	
2	0	0	0	0	509	1	
3	0	0	0	0	510	1	
4	0	0	0	0	510	1	
5	0	0	0	0	508	1	
6	0	0	0	0	508	1	
7	0	0	0	0	508	1	
8	0	0	0	0	509	1	
9	0	0	0	0	510	1	
10	0	0	0	0	511	1	
11	0	0	0	0	511	1	
12	0	0	0	0	512	1	
13	0	0	0	0	510	1	
14	0	0	0	0	509	1	
15	0	0	0	0	511	1	
0	0	0	0	0	510	1	
1	0	0	0	0	508	1	
2	0	0	0	0	510	1	
3	0	0	0	0	508	1	
4	0	0	0	0	507	1	
5	0	0	0	0	508	1	
6	0	0	0	0	508	1	
7	0	0	0	0	508	1	
8	0	0	0	0	510	1	
9	0	0	0	0	510	1	
10	0	0	0	0	511	1	
11	0	0	0	0	510	1	
12	0	0	0	0	510	1	
13	0	0	0	0	510	1	
14	0	0	0	0	511	2	
15	0	0	0	0	510	1	
0	0	0	0	0	511	1	
1	0	0	0	0	510	1	
2	0	0	0	0	511	1	
3	0	0	0	0	508	1	
4	0	0	0	0	509	1	
5	0	0	0	0	509	1	
6	0	0	0	0	510	2	
7	0	0	0	0	511	1	
8	0	0	0	0	510	1	
9	0	0	0	0	510	1	
10	0	0	0	0	510	1	
11	0	0	0	0	510	1	
12	0	0	0	0	509	1	
13	0	0	0	0	513	1	
14	0	0	0	0	511	2	
15	0	0	0	0	510	1	
0	0	0	0	0	511	1	
1	0	0	0	0	509	1	
2	0	0	0	0	509	1	
3	0	0	0	0	509	1	
4	0	0	0	0	509	1	
5	0	0	0	0	508	1	
6	0	0	0	0	509	2	
7	0	0	0	0	507	1	
8	0	0	0	0	508	1	
9	0	0	0	0	507	1	
10	0	0	0	0	511	1	
11	0	0	0	0	510	1	
12	0	0	0	0	509	1	
13	0	0	0	0	511	1	
14	0	0	0	0	511	2	
15	0	0	0	0	509	1	
0	0	0	0	0	511	1	
1	0	0	0	0	512	1	
2	0	0	0	0	512	1	
3	0	0	0	0	511	1	
4	0	0	0	0	508	1	
5	0	0	0	0	505	1	
6	0	0	0	0	509	2	
7	0	0	0	0	508	1	
8	0	0	0	0	508	1	
9	0	0	0	0	508	1	
10	0	0	0	0	510	1	
11	0	0	0	0	511	1	
12	0	0	0	0	510	1	
13	0	0	0	0	511	1	
14	0	0	0	0	511	2	
15	0	0	0	0	512	1	
0	0	0	0	0	511	1	
1	0	0	0	0	509	1	
2	0	0	0	0	511	1	
3	0	0	0	0	509	1	
4	0	0	0	0	508	1	
5	0	0	0	0	509	1	
6	0	0	0	0	508	2	
7	0	0	0	0	508	1	
8	0	0	0	0	508	1	
9	0	0	0	0	510	1	
10	0	0	0	0	510	1	
11	0	0	0	0	510	1	
12	0	0	0	0	511	1	
13	0	0	0	0	511	1	
14	0	0	0	0	512	2	
15	0	0	0	0	510	1	
0	0	0	0	0	511	0	
1	0	0	0	0	511	1	
2	0	0	0	0	510	1	
3	0	0	0	0	510	1	
4	0	0	0	0	509	1	
5	0	0	0	0	509	1	
6	0	0	0	0	508	2	
7	0	0	0	0	509	1	
8	0	0	0	0	510	0	
9	0	0	0	0	508	1	
10	0	0	0	0	508	1	
11	0	0	0	0	509	1	
12	0	0	0	0	509	1	
13	0	0	0	0	508	1	
14	0	0	0	0	511	2	
15	0	0	0	0	509	1	
0	0	0	0	0	510	1	
1	0	0	0	0	510	1	
2	0	0	0	0	509	1	
3	0	0	0	0	510	1	
4	0	0	0	0	508	1	
5	0	0	0	0	510	1	
6	0	0	0	0	508	2	
7	0	0	0	0	509	1	
8	0	0	0	0	508	1	
9	0	0	0	0	508	1	
10	0	0	0	0	507	1	
11	0	0	0	0	509	1	
12	0	0	0	0	508	1	
13	0	0	0	0	512	1	
14	0	0	0	0	510	1	
15	0	0	0	0	511	1	
0	0	0	0	0	508	1	
1	0	0	0	0	508	1	
2	0	0	0	0	510	1	
3	0	0	0	0	511	1	
4	0	0	0	0	508	1	
5	0	0	0	0	510	1	
6	0	0	0	0	509	2	
7	0	0	0	0	508	1	
8	0	0	0	0	510	0	
9	0	0	0	0	508	1	
10	0	0	0	0	510	1	
11	0	0	0	0	509	1	
12	0	0	0	0	506	1	
13	0	0	0	0	509	1	
14	0	0	0	0	511	2	
15	0	0	0	0	511	1	
0	0	0	0	0	510	0	
1	0	0	0	0	508	1	
2	0	0	0	0	511	1	
3	0	0	0	0	510	1	
4	0	0	0	0	510	1	
5	0	0	0	0	509	1	
6	0	0	0	0	510	2	
7	0	0	0	0	509	1	
8	0	0	0	0	509	0	
9	0	0	0	0	509	1	
10	0	0	0	0	508	1	
11	0	0	0	0	508	1	
12	0	0	0	0	509	1	
13	0	0	0	0	511	1	
14	0	0	0	0	512	2	
15	0	0	0	0	510	1	
0	0	0	0	0	512	1	
1	0	0	0	0	512	1	
2	0	0	0	0	511	1	
3	0	0	0	0	511	1	
4	0	0	0	0	508	1	
5	0	0	0	0	509	1	
6	0	0	0	0	508	2	
7	0	0	0	0	506	1	
8	0	0	0	0	509	1	
9	0	0	0	0	509	1	
10	0	0	0	0	507	1	
11	0	0	0	0	508	1	
12	0	0	0	0	507	1	
13	0	0	0	0	512	2	
14	0	0	0	0	511	2	
15	0	0	0	0	509	1	
0	0	0	0	0	511	1	
1	0	0	0	0	510	1	
2	0	0	0	0	510	1	
3	0	0	0	0	511	1	
4	0	0	0	0	511	1	
5	0	0	0	0	510	1	
6	0	0	0	0	510	2	
7	0	0	0	0	510	1	
8	0	0	0	0	511	1	
9	0	0	0	0	508	1	
10	0	0	0	0	509	1	
11	0	0	0	0	508	1	
12	0	0	0	0	507	1	
13	0	0	0	0	507	1	
14	0	0	0	0	510	2	
15	0	0	0	0	510	1	
0	0	0	0	0	507	1	
1	0	0	0	0	511	1	
2	0	0	0	0	511	1	
3	0	0	0	0	509	1	
4	0	0	0	0	511	1	
5	0	0	0	0	511	1	
6	0	0	0	0	509	2	
7	0	0	0	0	508	1	
8	0	0	0	0	506	1	
9	0	0	0	0	510	1	
10	0	0	0	0	508	1	
11	0	0	0	0	508	1	
12	0	0	0	0	509	1	
13	0	0	0	0	507	1	
14	0	0	0	0	508	2	
15	0	0	0	0	509	1	
0	0	0	0	0	512	1	
1	0	0	0	0	511	1	
2	0	0	0	0	510	1	
3	0	0	0	0	511	1	
4	0	0	0	0	510	1	
5	0	0	0	0	510	1	
6	0	0	0	0	510	2	
7	0	0	0	0	511	1	
8	0	0	0	0	508	1	
9	0	0	0	0	507	1	
10	0	0	0	0	508	1	
11	0	0	0	0	510	1	
12	0	0	0	0	509	1	
13	0	0	0	0	509	1	
14	0	0	0	0	508	1	
15	0	0	0	0	510	1	
0	0	0	0	0	510	1	
1	0	0	0	0	510	1	
2	0	0	0	0	511	1	
3	0	0	0	0	511	1	
4	0	0	0	0	511	1	
5	0	0	0	0	512	1	
6	0	0	0	0	510	1	
7	0	0	0	0	510	1	
8	0	0	0	0	508	1	
9	0	0	0	0	509	1	
10	0	0	0	0	507	1	
11	0	0	0	0	510	1	
12	0	0	0	0	508	1	
13	0	0	0	0	509	1	
14	0	0	0	0	509	1	
15	0	0	0	0	508	1	
0	0	0	0	0	509	1	
1	0	0	0	0	509	1	
2	0	0	0	0	510	1	
3	0	0	0	0	510	1	
4	0	0	0	0	511	1	
5	0	0	0	0	511	1	
6	0	0	0	0	510	2	
7	0	0	0	0	512	1	
8	0	0	0	0	511	1	
9	0	0	0	0	508	1	
10	0	0	0	0	508	1	
11	0	0	0	0	509	1	
12	0	0	0	0	508	1	
13	0	0	0	0	507	1	
14	0	0	0	0	508	2	
15	0	0	0	0	509	1	
0	0	0	0	0	508	1	
1	0	0	0	0	508	1	
2	0	0	0	0	510	1	
3	0	0	0	0	510	1	
4	0	0	0	0	512	1	
5	0	0	0	0	511	1	
6	0	0	0	0	511	2	
7	0	0	0	0	511	1	
8	0	0	0	0	511	1	
9	0	0	0	0	510	1	
10	0	0	0	0	510	1	
11	0	0	0	0	510	1	
12	0	0	0	0	508	1	
13	0	0	0	0	508	1	
14	0	0	0	0	508	2	
15	0	0	0	0	507	1	
0	0	0	0	0	508	1	
1	0	0	0	0	508	1	
2	0	0	0	0	508	1	
3	0	0	0	0	510	1	
4	0	0	0	0	511	1	
5	0	0	0	0	512	1	
6	0	0	0	0	512	2	
7	0	0	0	0	511	1	
8	0	0	0	0	511	1	
9	0	0	0	0	511	1	
10	0	0	0	0	508	1	
11	0	0	0	0	507	1	
12	0	0	0	0	509	1	
13	0	0	0	0	509	1	
14	0	0	0	0	507	2	
15	0	0	0	0	509	1	
0	0	0	0	0	507	1	
1	0	0	0	0	508	1	
2	0	0	0	0	508	1	
3	0	0	0	0	510	1	
4	0	0	0	0	511	1	
5	0	0	0	0	510	1	
6	0	0	0	0	512	2	
7	0	0	0	0	513	1	
8	0	0	0	0	511	1	
9	0	0	0	0	511	1	
10	0	0	0	0	511	1	
11	0	0	0	0	509	1	
12	0	0	0	0	508	1	
13	0	0	0	0	508	1	
14	0	0	0	0	509	2	
15	0	0	0	0	510	1	
0	0	0	0	0	508	1	
1	0	0	0	0	508	1	
2	0	0	0	0	508	1	
3	0	0	0	0	508	1	
4	0	0	0	0	511	1	
5	0	0	0	0	511	1	
6	0	0	0	0	509	2	
7	0	0	0	0	511	1	
8	0	0	0	0	511	0	
9	0	0	0	0	511	1	
10	0	0	0	0	511	1	
11	0	0	0	0	511	1	
12	0	0	0	0	509	1	
13	0	0	0	0	510	1	
14	0	0	0	0	507	2	
15	0	0	0	0	508	1	
0	0	0	0	0	508	0	
1	0	0	0	0	507	1	
2	0	0	0	0	508	1	
3	0	0	0	0	508	1	
4	0	0	0	0	510	1	
5	0	0	0	0	510	1	
6	0	0	0	0	511	2	
7	0	0	0	0	511	1	
8	0	0	0	0	511	1	
9	0	0	0	0	512	1	
10	0	0	0	0	510	1	
11	0	0	0	0	509	1	
12	0	0	0	0	510	1	
13	0	0	0	0	508	1	
14	0	0	0	0	509	2	
15	0	0	0	0	508	1	
0	0	0	0	0	508	1	
1	0	0	0	0	510	1	
2	0	0	0	0	508	1	
3	0	0	0	0	509	1	
4	0	0	0	0	509	1	
5	0	0	0	0	510	1	
6	0	0	0	0	510	2	
7	0	0	0	0	511	1	
8	0	0	0	0	511	1	
9	0	0	0	0	510	1	
10	0	0	0	0	510	1	
11	0	0	0	0	512	1	
12	0	0	0	0	511	1	
13	0	0	0	0	511	1	
14	0	0	0	0	507	2	
15	0	0	0	0	511	1	
0	0	0	0	0	510	1	
1	0	0	0	0	510	1	
2	0	0	0	0	509	1	
3	0	0	0	0	508	1	
4	0	0	0	0	508	1	
5	0	0	0	0	510	1	
6	0	0	0	0	510	2	
7	0	0	0	0	510	1	
8	0	0	0	0	511	0	
9	0	0	0	0	509	1	
10	0	0	0	0	510	1	
11	0	0	0	0	511	1	
12	0	0	0	0	512	1	
13	0	0	0	0	511	1	
14	0	0	0	0	513	2	
15	0	0	0	0	509	1	
0	0	0	0	0	508	1	
1	0	0	0	0	508	1	
2	0	0	0	0	508	1	
3	0	0	0	0	508	1	
4	0	0	0	0	510	1	
5	0	0	0	0	510	1	
6	0	0	0	0	510	2	
7	0	0	0	0	510	1	
8	0	0	0	0	509	1	
9	0	0	0	0	512	1	
10	0	0	0	0	511	1	
11	0	0	0	0	511	1	
12	0	0	0	0	511	1	
13	0	0	0	0	511	1	
14	0	0	0	0	511	2	
15	0	0	0	0	510	1	
0	0	0	0	0	508	1	
1	0	0	0	0	509	1	
2	0	0	0	0	507	1	
3	0	0	0	0	508	1	
4	0	0	0	0	508	1	
5	0	0	0	0	508	1	
6	0	0	0	0	508	2	
7	0	0	0	0	511	1	
8	0	0	0	0	511	1	
9	0	0	0	0	510	1	
10	0	0	0	0	511	1	
11	0	0	0	0	512	1	
12	0	0	0	0	512	1	
13	0	0	0	0	508	1	
14	0	0	0	0	511	2	
15	0	0	0	0	511	1	
0	0	0	0	0	510	1	
1	0	0	0	0	509	1	
2	0	0	0	0	508	1	
3	0	0	0	0	508	1	
4	0	0	0	0	507	1	
5	0	0	0	0	509	1	
6	0	0	0	0	511	2	
7	0	0	0	0	508	1	
8	0	0	0	0	509	1	
9	0	0	0	0	508	1	
10	0	0	0	0	511	1	
11	0	0	0	0	510	1	
12	0	0	0	0	511	1	
13	0	0	0	0	512	1	
14	0	0	0	0	512	2	
15	0	0	0	0	510	1	
0	0	0	0	0	511	1	
1	0	0	0	0	509	1	
2	0	0	0	0	509	1	
3	0	0	0	0	508	1	
4	0	0	0	0	509	1	
5	0	0	0	0	508	1	
6	0	0	0	0	508	2	
7	0	0	0	0	509	1	
8	0	0	0	0	508	1	
9	0	0	0	0	511	1	
10	0	0	0	0	511	1	
11	0	0	0	0	509	1	
12	0	0	0	0	510	1	
13	0	0	0	0	511	1	
14	0	0	0	0	510	2	
15	0	0	0	0	510	1	
0	0	0	0	0	509	1	
1	0	0	0	0	510	1	
2	0	0	0	0	509	1	
3	0	0	0	0	509	1	
4	0	0	0	0	509	1	
5	0	0	0	0	508	1	
6	0	0	0	0	508	2	
7	0	0	0	0	509	1	
8	0	0	0	0	510	1	
9	0	0	0	0	508	1	
10	0	0	0	0	510	1	
11	0	0	0	0	510	1	
12	0	0	0	0	508	1	
13	0	0	0	0	510	1	
14	0	0	0	0	512	1	
15	0	0	0	0	511	1	
0	0	0	0	0	512	1	
1	0	0	0	0	510	1	
2	0	0	0	0	508	1	
3	0	0	0	0	509	1	
4	0	0	0	0	508	1	
5	0	0	0	0	510	1	
6	0	0	0	0	509	1	
7	0	0	0	0	508	1	
8	0	0	0	0	509	1	
9	0	0	0	0	508	1	
10	0	0	0	0	509	1	
11	0	0	0	0	511	1	
12	0	0	0	0	509	1	
13	0	0	0	0	509	1	
14	0	0	0	0	512	2	
15	0	0	0	0	511	2	
0	0	0	0	0	509	1	
1	0	0	0	0	510	1	
2	0	0	0	0	509	1	
3	0	0	0	0	508	1	
4	0	0	0	0	509	1	
5	0	0	0	0	509	1	
6	0	0	0	0	511	2	
7	0	0	0	0	509	1	
8	0	0	0	0	510	1	
9	0	0	0	0	509	2	
10	0	0	0	0	508	1	
11	0	0	0	0	510	1	
12	0	0	0	0	508	1	
13	0	0	0	0	511	1	
14	0	0	0	0	511	2	
15	0	0	0	0	511	1	
0	0	0	0	0	511	1	
1	0	0	0	0	511	1	
2	0	0	0	0	508	1	
3	0	0	0	0	509	1	
4	0	0	0	0	510	1	
5	0	0	0	0	509	1	
6	0	0	0	0	507	2	
7	0	0	0	0	509	1	
8	0	0	0	0	510	1	
9	0	0	0	0	509	1	
10	0	0	0	0	511	1	
11	0	0	0	0	510	1	
12	0	0	0	0	509	1	
13	0	0	0	0	510	1	
14	0	0	0	0	511	2	
15	0	0	0	0	511	1	
0	0	0	0	0	510	1	
1	0	0	0	0	510	1	
2	0	0	0	0	510	1	
3	0	0	0	0	511	1	
4	0	0	0	0	510	1	
5	0	0	0	0	509	1	
6	0	0	0	0	509	2	
7	0	0	0	0	511	1	
8	0	0	0	0	508	1	
9	0	0	0	0	508	1	
10	0	0	0	0	507	1	
11	0	0	0	0	508	1	
12	0	0	0	0	510	1	
13	0	0	0	0	511	1	
14	0	0	0	0	510	2	
15	0	0	0	0	512	1	
0	0	0	0	0	512	1	
1	0	0	0	0	512	1	
2	0	0	0	0	511	1	
3	0	0	0	0	511	1	
4	0	0	0	0	510	1	
5	0	0	0	0	508	1	
6	0	0	0	0	508	2	
7	0	0	0	0	507	1	
8	0	0	0	0	508	1	
9	0	0	0	0	508	1	
10	0	0	0	0	508	1	
11	0	0	0	0	509	1	
12	0	0	0	0	510	1	
13	0	0	0	0	508	1	
14	0	0	0	0	510	2	
15	0	0	0	0	511	1	
0	0	0	0	0	511	1	
1	0	0	0	0	511	1	
2	0	0	0	0	511	1	
3	0	0	0	0	510	1	
4	0	0	0	0	509	1	
5	0	0	0	0	508	1	
6	0	0	0	0	510	2	
7	0	0	0	0	510	1	
8	0	0	0	0	510	0	
9	0	0	0	0	509	1	
10	0	0	0	0	509	1	
11	0	0	0	0	508	1	
12	0	0	0	0	511	1	
13	0	0	0	0	510	1	
14	0	0	0	0	510	2	
15	0	0	0	0	512	1	
0	0	0	0	0	509	0	
1	0	0	0	0	510	1	
2	0	0	0	0	512	1	
3	0	0	0	0	511	1	
4	0	0	0	0	510	1	
5	0	0	0	0	511	1	
6	0	0	0	0	508	2	
7	0	0	0	0	510	1	
8	0	0	0	0	509	1	
9	0	0	0	0	507	1	
10	0	0	0	0	508	1	
11	0	0	0	0	509	1	
12	0	0	0	0	508	1	
13	0	0	0	0	509	1	
14	0	0	0	0	508	2	
15	0	0	0	0	508	1	
0	0	0	0	0	510	1	
1	0	0	0	0	513	1	
2	0	0	0	0	512	1	
3	0	0	0	0	511	1	
4	0	0	0	0	510	1	
5	0	0	0	0	510	1	
6	0	0	0	0	510	2	
7	0	0	0	0	510	1	
8	0	0	0	0	509	1	
9	0	0	0	0	507	1	
10	0	0	0	0	509	1	
11	0	0	0	0	507	1	
12	0	0	0	0	511	1	
13	0	0	0	0	510	1	
14	0	0	0	0	509	2	
15	0	0	0	0	510	1	
0	0	0	0	0	511	0	
1	0	0	0	0	512	1	
2	0	0	0	0	512	1	
3	0	0	0	0	511	1	
4	0	0	0	0	512	1	
5	0	0	0	0	512	1	
6	0	0	0	0	510	2	
7	0	0	0	0	508	1	
8	0	0	0	0	510	0	
9	0	0	0	0	508	1	
10	0	0	0	0	508	1	
11	0	0	0	0	508	1	
12	0	0	0	0	508	1	
13	0	0	0	0	508	1	
14	0	0	0	0	507	2	
15	0	0	0	0	509	1	
0	0	0	0	0	510	1	
1	0	0	0	0	511	1	
2	0	0	0	0	513	1	
3	0	0	0	0	511	1	
4	0	0	0	0	511	1	
5	0	0	0	0	511	1	
6	0	0	0	0	511	2	
7	0	0	0	0	511	1	
8	0	0	0	0	510	1	
9	0	0	0	0	510	1	
10	0	0	0	0	507	1	
11	0	0	0	0	508	1	
12	0	0	0	0	507	1	
13	0	0	0	0	508	1	
14	0	0	0	0	507	2	
15	0	0	0	0	509	1	
0	0	0	0	0	508	1	
1	0	0	0	0	509	1	
2	0	0	0	0	510	1	
3	0	0	0	0	511	1	
4	0	0	0	0	512	1	
5	0	0	0	0	513	2	
6	0	0	0	0	512	2	
7	0	0	0	0	511	1	
8	0	0	0	0	511	1	
9	0	0	0	0	510	1	
10	0	0	0	0	509	1	
11	0	0	0	0	509	1	
12	0	0	0	0	510	1	
13	0	0	0	0	507	1	
14	0	0	0	0	507	2	
15	0	0	0	0	507	1	
0	0	0	0	0	507	1	
1	0	0	0	0	509	1	
2	0	0	0	0	511	1	
3	0	0	0	0	511	1	
4	0	0	0	0	511	1	
5	0	0	0	0	512	1	
6	0	0	0	0	510	2	
7	0	0	0	0	511	1	
8	0	0	0	0	508	1	
9	0	0	0	0	509	1	
10	0	0	0	0	508	1	
11	0	0	0	0	510	1	
12	0	0	0	0	510	1	
13	0	0	0	0	510	1	
14	0	0	0	0	509	2	
15	0	0	0	0	508	1	
0	0	0	0	0	507	1	
1	0	0	0	0	508	1	
2	0	0	0	0	509	1	
3	0	0	0	0	512	1	
4	0	0	0	0	513	1	
5	0	0	0	0	511	1	
6	0	0	0	0	511	2	
7	0	0	0	0	511	1	
8	0	0	0	0	511	2	
9	0	0	0	0	509	1	
10	0	0	0	0	510	1	
11	0	0	0	0	508	1	
12	0	0	0	0	509	1	
13	0	0	0	0	509	1	
14	0	0	0	0	509	2	
15	0	0	0	0	506	1	
0	0	0	0	0	510	1	
1	0	0	0	0	508	1	
2	0	0	0	0	510	1	
3	0	0	0	0	510	1	
4	0	0	0	0	511	1	
5	0	0	0	0	510	1	
6	0	0	0	0	510	1	
7	0	0	0	0	511	1	
8	0	0	0	0	511	1	
9	0	0	0	0	510	1	
10	0	0	0	0	511	1	
11	0	0	0	0	508	1	
12	0	0	0	0	510	1	
13	0	0	0	0	508	1	
14	0	0	0	0	508	1	
15	0	0	0	0	507	1	
0	0	0	0	0	508	1	
1	0	0	0	0	508	1	
2	0	0	0	0	509	1	
3	0	0	0	0	510	1	
4	0	0	0	0	511	1	
5	0	0	0	0	511	1	
6	0	0	0	0	511	1	
7	0	0	0	0	511	1	
8	0	0	0	0	512	1	
9	0	0	0	0	511	1	
10	0	0	0	0	510	1	
11	0	0	0	0	510	1	
12	0	0	0	0	511	1	
13	0	0	0	0	511	1	
14	0	0	0	0	509	2	
15	0	0	0	0	509	1	
0	0	0	0	0	507	1	
1	0	0	0	0	508	1	
2	0	0	0	0	510	1	
3	0	0	0	0	510	1	
4	0	0	0	0	508	1	
5	0	0	0	0	511	1	
6	0	0	0	0	511	2	
7	0	0	0	0	510	1	
8	0	0	0	0	511	1	
9	0	0	0	0	510	1	
10	0	0	0	0	511	1	
11	0	0	0	0	511	1	
12	0	0	0	0	510	1	
13	0	0	0	0	510	1	
14	0	0	0	0	509	2	
15	0	0	0	0	508	1	
0	0	0	0	0	508	1	
1	0	0	0	0	506	1	
2	0	0	0	0	508	1	
3	0	0	0	0	509	1	
4	0	0	0	0	510	1	
5	0	0	0	0	508	1	
6	0	0	0	0	510	2	
7	0	0	0	0	512	1	
8	0	0	0	0	510	1	
9	0	0	0	0	510	1	
10	0	0	0	0	510	1	
11	0	0	0	0	511	1	
12	0	0	0	0	511	1	
13	0	0	0	0	511	1	
14	0	0	0	0	509	2	
15	0	0	0	0	509	1	
0	0	0	0	0	509	1	
1	0	0	0	0	508	1	
2	0	0	0	0	508	1	
3	0	0	0	0	510	1	
4	0	0	0	0	508	1	
5	0	0	0	0	508	1	
6	0	0	0	0	509	2	
7	0	0	0	0	512	1	
8	0	0	0	0	512	1	
9	0	0	0	0	511	1	
10	0	0	0	0	511	1	
11	0	0	0	0	511	1	
12	0	0	0	0	509	1	
13	0	0	0	0	510	1	
14	0	0	0	0	510	2	
15	0	0	0	0	509	1	
0	0	0	0	0	507	1	
1	0	0	0	0	508	1	
2	0	0	0	0	507	1	
3	0	0	0	0	507	1	
4	0	0	0	0	508	1	
5	0	0	0	0	509	1	
6	0	0	0	0	511	2	
7	0	0	0	0	511	1	
8	0	0	0	0	513	1	
9	0	0	0	0	514	1	
10	0	0	0	0	512	1	
11	0	0	0	0	513	1	
12	0	0	0	0	512	1	
13	0	0	0	0	511	1	
14	0	0	0	0	508	2	
15	0	0	0	0	509	1	
0	0	0	0	0	510	0	
1	0	0	0	0	507	1	
2	0	0	0	0	508	1	
3	0	0	0	0	507	1	
4	0	0	0	0	509	1	
5	0	0	0	0	508	1	
6	0	0	0	0	507	2	
7	0	0	0	0	509	1	
8	0	0	0	0	509	0	
9	0	0	0	0	509	1	
10	0	0	0	0	511	1	
11	0	0	0	0	511	1	
12	0	0	0	0	511	1	
13	0	0	0	0	510	1	
14	0	0	0	0	511	2	
15	0	0	0	0	510	1	
0	0	0	0	0	510	1	
1	0	0	0	0	510	1	
2	0	0	0	0	508	1	
3	0	0	0	0	508	1	
4	0	0	0	0	510	1	
5	0	0	0	0	508	1	
6	0	0	0	0	510	2	
7	0	0	0	0	511	1	
8	0	0	0	0	511	1	
9	0	0	0	0	511	1	
10	0	0	0	0	511	1	
11	0	0	0	0	511	1	
12	0	0	0	0	510	1	
13	0	0	0	0	513	1	
14	0	0	0	0	511	2	
15	0	0	0	0	509	1	
0	0	0	0	0	509	1	
1	0	0	0	0	510	1	
2	0	0	0	0	509	1	
3	0	0	0	0	510	1	
4	0	0	0	0	508	1	
5	0	0	0	0	508	1	
6	0	0	0	0	510	2	
7	0	0	0	0	508	1	
8	0	0	0	0	510	0	
9	0	0	0	0	509	1	
10	0	0	0	0	510	1	
11	0	0	0	0	511	1	
12	0	0	0	0	511	1	
13	0	0	0	0	511	1	
14	0	0	0	0	511	2	
15	0	0	0	0	510	1	
0	0	0	0	0	507	0	
1	0	0	0	0	509	1	
2	0	0	0	0	510	1	
3	0	0	0	0	508	1	
4	0	0	0	0	508	1	
5	0	0	0	0	511	1	
6	0	0	0	0	506	2	
7	0	0	0	0	510	1	
8	0	0	0	0	513	0	
9	0	0	0	0	513	1	
10	0	0	0	0	511	1	
11	0	0	0	0	512	1	
12	0	0	0	0	510	1	
13	0	0	0	0	509	1	
14	0	0	0	0	509	2	
15	0	0	0	0	509	1	
0	0	0	0	0	508	1	
1	0	0	0	0	509	1	
2	0	0	0	0	511	1	
3	0	0	0	0	508	1	
4	0	0	0	0	507	1	
5	0	0	0	0	508	1	
6	0	0	0	0	509	2	
7	0	0	0	0	510	1	
8	0	0	0	0	508	1	
9	0	0	0	0	508	1	
10	0	0	0	0	512	1	
11	0	0	0	0	512	1	
12	0	0	0	0	513	1	
13	0	0	0	0	514	1	
14	0	0	0	0	512	2	
15	0	0	0	0	511	1	
0	0	0	0	0	511	1	
1	0	0	0	0	510	1	
2	0	0	0	0	508	1	
3	0	0	0	0	508	1	
4	0	0	0	0	505	1	
5	0	0	0	0	508	1	
6	0	0	0	0	508	2	
7	0	0	0	0	507	1	
8	0	0	0	0	505	1	
9	0	0	0	0	511	1	
10	0	0	0	0	511	1	
11	0	0	0	0	507	1	
12	0	0	0	0	510	1	
13	0	0	0	0	511	1	
14	0	0	0	0	510	2	
15	0	0	0	0	510	1	
0	0	0	0	0	512	1	
1	0	0	0	0	510	1	
2	0	0	0	0	510	1	
3	0	0	0	0	510	1	
4	0	0	0	0	508	1	
5	0	0	0	0	510	1	
6	0	0	0	0	506	2	
7	0	0	0	0	509	1	
8	0	0	0	0	510	1	
9	0	0	0	0	508	1	
10	0	0	0	0	509	1	
11	0	0	0	0	511	1	
12	0	0	0	0	511	1	
13	0	0	0	0	511	1	
14	0	0	0	0	512	2	
15	0	0	0	0	512	1	
0	0	0	0	0	512	1	
1	0	0	0	0	510	1	
2	0	0	0	0	509	1	
3	0	0	0	0	511	1	
4	0	0	0	0	508	1	
5	0	0	0	0	509	1	
6	0	0	0	0	510	2	
7	0	0	0	0	510	1	
8	0	0	0	0	508	1	
9	0	0	0	0	509	1	
10	0	0	0	0	511	1	
11	0	0	0	0	510	1	
12	0	0	0	0	511	1	
13	0	0	0	0	509	1	
14	0	0	0	0	509	1	
15	0	0	0	0	511	1	
0	0	0	0	0	511	1	
1	0	0	0	0	511	1	
2	0	0	0	0	512	1	
3	0	0	0	0	511	1	
4	0	0	0	0	508	1	
5	0	0	0	0	507	1	
6	0	0	0	0	507	1	
7	0	0	0	0	508	1	
8	0	0	0	0	508	2	
9	0	0	0	0	509	1	
10	0	0	0	0	507	1	
11	0	0	0	0	507	1	
12	0	0	0	0	509	1	
13	0	0	0	0	512	1	
14	0	0	0	0	513	1	
15	0	0	0	0	511	1	
0	0	0	0	0	511	1	
1	0	0	0	0	510	1	
2	0	0	0	0	510	1	
3	0	0	0	0	510	1	
4	0	0	0	0	507	1	
5	0	0	0	0	508	1	
6	0	0	0	0	508	2	
7	0	0	0	0	508	1	
8	0	0	0	0	510	1	
9	0	0	0	0	509	1	
10	0	0	0	0	509	1	
11	0	0	0	0	507	1	
12	0	0	0	0	510	1	
13	0	0	0	0	509	1	
14	0	0	0	0	511	2	
15	0	0	0	0	512	1	
0	0	0	0	0	512	1	
1	0	0	0	0	512	1	
2	0	0	0	0	512	1	
3	0	0	0	0	509	1	
4	0	0	0	0	510	1	
5	0	0	0	0	509	1	
6	0	0	0	0	510	2	
7	0	0	0	0	507	1	
8	0	0	0	0	508	1	
9	0	0	0	0	507	1	
10	0	0	0	0	508	1	
11	0	0	0	0	507	1	
12	0	0	0	0	509	1	
13	0	0	0	0	508	1	
14	0	0	0	0	509	2	
15	0	0	0	0	510	1	
0	0	0	0	0	512	1	
1	0	0	0	0	512	1	
2	0	0	0	0	512	1	
3	0	0	0	0	510	1	
4	0	0	0	0	510	1	
5	0	0	0	0	509	1	
6	0	0	0	0	507	2	
7	0	0	0	0	510	1	
8	0	0	0	0	510	1	
9	0	0	0	0	508	1	
10	0	0	0	0	509	1	
11	0	0	0	0	507	1	
12	0	0	0	0	510	1	
13	0	0	0	0	508	1	
14	0	0	0	0	509	2	
15	0	0	0	0	511	1	
0	0	0	0	0	511	1	
1	0	0	0	0	511	1	
2	0	0	0	0	512	1	
3	0	0	0	0	511	1	
4	0	0	0	0	511	1	
5	0	0	0	0	509	1	
6	0	0	0	0	509	2	
7	0	0	0	0	510	1	
8	0	0	0	0	508	1	
9	0	0	0	0	509	1	
10	0	0	0	0	510	1	
11	0	0	0	0	511	1	
12	0	0	0	0	510	1	
13	0	0	0	0	510	1	
14	0	0	0	0	507	2	
15	0	0	0	0	511	1	
0	0	0	0	0	509	1	
1	0	0	0	0	511	1	
2	0	0	0	0	509	1	
3	0	0	0	0	511	1	
4	0	0	0	0	512	1	
5	0	0	0	0	510	1	
6	0	0	0	0	510	2	
7	0	0	0	0	509	1	
8	0	0	0	0	509	1	
9	0	0	0	0	508	1	
10	0	0	0	0	508	1	
11	0	0	0	0	508	1	
12	0	0	0	0	508	1	
13	0	0	0	0	508	1	
14	0	0	0	0	508	2	
15	0	0	0	0	509	1	
0	0	0	0	0	511	1	
1	0	0	0	0	511	1	
2	0	0	0	0	509	1	
3	0	0	0	0	511	1	
4	0	0	0	0	511	1	
5	0	0	0	0	513	2	
6	0	0	0	0	512	2	
7	0	0	0	0	509	1	
8	0	0	0	0	510	0	
9	0	0	0	0	509	1	
10	0	0	0	0	507	1	
11	0	0	0	0	508	1	
12	0	0	0	0	507	1	
13	0	0	0	0	508	1	
14	0	0	0	0	511	2	
15	0	0	0	0	508	1	
0	0	0	0	0	510	1	
1	0	0	0	0	508	1	
2	0	0	0	0	510	1	
3	0	0	0	0	509	1	
4	0	0	0	0	513	1	
5	0	0	0	0	509	1	
6	0	0	0	0	510	2	
7	0	0	0	0	509	1	
8	0	0	0	0	511	1	
9	0	0	0	0	511	1	
10	0	0	0	0	510	1	
11	0	0	0	0	511	1	
12	0	0	0	0	510	1	
13	0	0	0	0	508	1	
14	0	0	0	0	507	2	
15	0	0	0	0	508	1	
0	0	0	0	0	511	1	
1	0	0	0	0	510	1	
2	0	0	0	0	511	1	
3	0	0	0	0	511	1	
4	0	0	0	0	511	1	
5	0	0	0	0	511	1	
6	0	0	0	0	511	2	
7	0	0	0	0	508	1	
8	0	0	0	0	510	0	
9	0	0	0	0	510	1	
10	0	0	0	0	508	1	
11	0	0	0	0	509	1	
12	0	0	0	0	510	1	
13	0	0	0	0	509	1	
14	0	0	0	0	508	2	
15	0	0	0	0	508	1	
0	0	0	0	0	508	0	
1	0	0	0	0	508	1	
2	0	0	0	0	508	1	
3	0	0	0	0	511	1	
4	0	0	0	0	511	1	
5	0	0	0	0	511	1	
6	0	0	0	0	512	2	
7	0	0	0	0	509	1	
8	0	0	0	0	511	1	
9	0	0	0	0	509	1	
10	0	0	0	0	510	1	
11	0	0	0	0	509	1	
12	0	0	0	0	507	1	
13	0	0	0	0	508	1	
14	0	0	0	0	508	2	
15	0	0	0	0	510	1	
0	0	0	0	0	508	1	
1	0	0	0	0	509	1	
2	0	0	0	0	510	1	
3	0	0	0	0	510	1	
4	0	0	0	0	509	1	
5	0	0	0	0	512	1	
6	0	0	0	0	512	2	
7	0	0	0	0	510	1	
8	0	0	0	0	512	1	
9	0	0	0	0	510	1	
10	0	0	0	0	512	1	
11	0	0	0	0	508	1	
12	0	0	0	0	509	1	
13	0	0	0	0	509	1	
14	0	0	0	0	509	2	
15	0	0	0	0	505	1	
0	0	0	0	0	508	1	
1	0	0	0	0	508	1	
2	0	0	0	0	510	1	
3	0	0	0	0	511	1	
4	0	0	0	0	512	1	
5	0	0	0	0	512	1	
6	0	0	0	0	512	2	
7	0	0	0	0	510	1	
8	0	0	0	0	511	1	
9	0	0	0	0	509	1	
10	0	0	0	0	511	1	
11	0	0	0	0	509	1	
12	0	0	0	0	510	1	
13	0	0	0	0	508	1	
14	0	0	0	0	510	2	
15	0	0	0	0	507	1	
0	0	0	0	0	508	1	
1	0	0	0	0	508	1	
2	0	0	0	0	508	1	
3	0	0	0	0	507	1	
4	0	0	0	0	508	1	
5	0	0	0	0	510	1	
6	0	0	0	0	512	2	
7	0	0	0	0	511	1	
8	0	0	0	0	511	1	
9	0	0	0	0	511	1	
10	0	0	0	0	512	1	
11	0	0	0	0	512	1	
12	0	0	0	0	510	1	
13	0	0	0	0	511	1	
14	0	0	0	0	510	2	
15	0	0	0	0	508	1	
0	0	0	0	0	508	1	
1	0	0	0	0	509	1	
2	0	0	0	0	509	1	
3	0	0	0	0	509	1	
4	0	0	0	0	510	1	
5	0	0	0	0	511	2	
6	0	0	0	0	511	2	
7	0	0	0	0	512	1	
8	0	0	0	0	510	1	
9	0	0	0	0	512	1	
10	0	0	0	0	511	1	
11	0	0	0	0	510	1	
12	0	0	0	0	511	1	
13	0	0	0	0	507	1	
14	0	0	0	0	505	1	
15	0	0	0	0	507	1	
0	0	0	0	0	505	1	
1	0	0	0	0	509	1	
2	0	0	0	0	511	1	
3	0	0	0	0	510	1	
4	0	0	0	0	509	1	
5	0	0	0	0	508	1	
6	0	0	0	0	510	1	
7	0	0	0	0	512	1	
8	0	0	0	0	508	1	
9	0	0	0	0	511	1	
10	0	0	0	0	510	1	
11	0	0	0	0	511	1	
12	0	0	0	0	511	1	
13	0	0	0	0	509	1	
14	0	0	0	0	510	2	
15	0	0	0	0	510	1	
0	0	0	0	0	509	1	
1	0	0	0	0	509	1	
2	0	0	0	0	510	1	
3	0	0	0	0	508	1	
4	0	0	0	0	510	1	
5	0	0	0	0	512	1	
6	0	0	0	0	511	2	
7	0	0	0	0	509	1	
8	0	0	0	0	512	2	
9	0	0	0	0	511	1	
10	0	0	0	0	512	1	
11	0	0	0	0	512	1	
12	0	0	0	0	510	1	
13	0	0	0	0	511	1	
14	0	0	0	0	507	2	
15	0	0	0	0	509	1	
0	0	0	0	0	510	1	
1	0	0	0	0	508	1	
2	0	0	0	0	507	1	
3	0	0	0	0	510	1	
4	0	0	0	0	507	1	
5	0	0	0	0	510	1	
6	0	0	0	0	510	2	
7	0	0	0	0	511	1	
8	0	0	0	0	511	1	
9	0	0	0	0	509	1	
10	0	0	0	0	511	1	
11	0	0	0	0	510	1	
12	0	0	0	0	512	1	
13	0	0	0	0	512	1	
14	0	0	0	0	511	2	
15	0	0	0	0	508	1	
0	0	0	0	0	508	1	
1	0	0	0	0	508	1	
2	0	0	0	0	507	1	
3	0	0	0	0	508	1	
4	0	0	0	0	505	1	
5	0	0	0	0	508	1	
6	0	0	0	0	507	2	
7	0	0	0	0	509	1	
8	0	0	0	0	510	1	
9	0	0	0	0	513	1	
10	0	0	0	0	511	1	
11	0	0	0	0	512	1	
12	0	0	0	0	510	1	
13	0	0	0	0	510	1	
14	0	0	0	0	510	2	
15	0	0	0	0	512	1	
0	0	0	0	0	508	1	
1	0	0	0	0	509	1	
2	0	0	0	0	507	1	
3	0	0	0	0	508	1	
4	0	0	0	0	508	1	
5	0	0	0	0	508	1	
6	0	0	0	0	509	2	
7	0	0	0	0	508	1	
8	0	0	0	0	510	1	
9	0	0	0	0	512	1	
10	0	0	0	0	512	1	
11	0	0	0	0	512	1	
12	0	0	0	0	511	1	
13	0	0	0	0	508	1	
14	0	0	0	0	510	2	
15	0	0	0	0	508	1	
0	0	0	0	0	508	0	
1	0	0	0	0	507	1	
2	0	0	0	0	507	1	
3	0	0	0	0	510	1	
4	0	0	0	0	508	1	
5	0	0	0	0	509	1	
6	0	0	0	0	511	2	
7	0	0	0	0	509	1	
8	0	0	0	0	509	0	
9	0	0	0	0	508	1	
10	0	0	0	0	508	1	
11	0	0	0	0	510	1	
12	0	0	0	0	510	1	
13	0	0	0	0	511	1	
14	0	0	0	0	510	2	
15	0	0	0	0	509	1	
0	0	0	0	0	512	0	
1	0	0	0	0	512	1	
2	0	0	0	0	511	1	
3	0	0	0	0	510	1	
4	0	0	0	0	508	1	
5	0	0	0	0	508	1	
6	0	0	0	0	511	2	
7	0	0	0	0	508	1	
8	0	0	0	0	509	1	
9	0	0	0	0	508	1	
10	0	0	0	0	509	1	
11	0	0	0	0	509	1	
12	0	0	0	0	512	1	
13	0	0	0	0	512	1	
14	0	0	0	0	512	2	
15	0	0	0	0	510	1	
0	0	0	0	0	510	1	
1	0	0	0	0	509	1	
2	0	0	0	0	509	1	
3	0	0	0	0	508	1	
4	0	0	0	0	508	1	
5	0	0	0	0	508	1	
6	0	0	0	0	508	2	
7	0	0	0	0	508	1	
8	0	0	0	0	509	1	
9	0	0	0	0	508	1	
10	0	0	0	0	509	1	
11	0	0	0	0	508	1	
12	0	0	0	0	510	1	
13	0	0	0	0	510	1	
14	0	0	0	0	510	2	
15	0	0	0	0	511	1	
0	0	0	0	0	510	0	
1	0	0	0	0	510	1	
2	0	0	0	0	509	1	
3	0	0	0	0	507	1	
4	0	0	0	0	507	1	
5	0	0	0	0	507	1	
6	0	0	0	0	509	2	
7	0	0	0	0	508	1	
8	0	0	0	0	509	0	
9	0	0	0	0	510	1	
10	0	0	0	0	510	1	
11	0	0	0	0	512	1	
12	0	0	0	0	511	1	
13	0	0	0	0	512	1	
14	0	0	0	0	510	2	
15	0	0	0	0	511	1	
0	0	0	0	0	510	1	
1	0	0	0	0	511	1	
2	0	0	0	0	510	1	
3	0	0	0	0	508	1	
4	0	0	0	0	509	1	
5	0	0	0	0	509	1	
6	0	0	0	0	505	2	
7	0	0	0	0	508	1	
8	0	0	0	0	510	1	
9	0	0	0	0	508	1	
10	0	0	0	0	509	1	
11	0	0	0	0	506	1	
12	0	0	0	0	505	1	
13	0	0	0	0	508	1	
14	0	0	0	0	512	2	
15	0	0	0	0	511	1	
0	0	0	0	0	516	1	
1	0	0	0	0	515	1	
2	0	0	0	0	511	1	
3	0	0	0	0	508	1	
4	0	0	0	0	508	1	
5	0	0	0	0	510	1	
6	0	0	0	0	507	2	
7	0	0	0	0	509	1	
8	0	0	0	0	509	1	
9	0	0	0	0	510	1	
10	0	0	0	0	510	1	
11	0	0	0	0	511	1	
12	0	0	0	0	510	1	
13	0	0	0	0	511	1	
14	0	0	0	0	510	2	
15	0	0	0	0	511	1	
0	0	0	0	0	510	1	
1	0	0	0	0	511	1	
2	0	0	0	0	511	1	
3	0	0	0	0	510	1	
4	0	0	0	0	507	1	
5	0	0	0	0	507	1	
6	0	0	0	0	508	2	
7	0	0	0	0	508	1	
8	0	0	0	0	508	2	
9	0	0	0	0	509	1	
10	0	0	0	0	508	1	
11	0	0	0	0	509	1	
12	0	0	0	0	510	1	
13	0	0	0	0	511	1	
14	0	0	0	0	510	2	
15	0	0	0	0	512	1	
0	0	0	0	0	511	1	
1	0	0	0	0	511	1	
2	0	0	0	0	510	1	
3	0	0	0	0	510	1	
4	0	0	0	0	510	1	
5	0	0	0	0	510	1	
6	0	0	0	0	506	2	
7	0	0	0	0	503	1	
8	0	0	0	0	506	1	
9	0	0	0	0	512	1	
10	0	0	0	0	512	1	
11	0	0	0	0	511	1	
12	0	0	0	0	510	1	
13	0	0	0	0	510	1	
14	0	0	0	0	511	2	
15	0	0	0	0	510	1	
0	0	0	0	0	509	1	
1	0	0	0	0	508	1	
2	0	0	0	0	510	1	
3	0	0	0	0	510	1	
4	0	0	0	0	509	1	
5	0	0	0	0	508	1	
6	0	0	0	0	509	1	
7	0	0	0	0	509	1	
8	0	0	0	0	508	1	
9	0	0	0	0	510	1	
10	0	0	0	0	508	1	
11	0	0	0	0	507	1	
12	0	0	0	0	509	1	
13	0	0	0	0	508	1	
14	0	0	0	0	507	1	
15	0	0	0	0	510	1	
0	0	0	0	0	511	1	
1	0	0	0	0	512	1	
2	0	0	0	0	511	1	
3	0	0	0	0	511	1	
4	0	0	0	0	510	1	
5	0	0	0	0	509	1	
6	0	0	0	0	510	1	
7	0	0	0	0	510	1	
8	0	0	0	0	508	1	
9	0	0	0	0	507	1	
10	0	0	0	0	507	1	
11	0	0	0	0	508	1	
12	0	0	0	0	509	1	
13	0	0	0	0	508	1	
14	0	0	0	0	508	2	
15	0	0	0	0	508	1	
0	0	0	0	0	509	1	
1	0	0	0	0	511	1	
2	0	0	0	0	510	1	
3	0	0	0	0	511	1	
4	0	0	0	0	510	1	
5	0	0	0	0	510	1	
6	0	0	0	0	512	2	
7	0	0	0	0	510	1	
8	0	0	0	0	510	1	
9	0	0	0	0	510	1	
10	0	0	0	0	507	1	
11	0	0	0	0	508	1	
12	0	0	0	0	509	1	
13	0	0	0	0	508	1	
14	0	0	0	0	508	2	
15	0	0	0	0	511	1	
0	0	0	0	0	511	1	
1	0	0	0	0	509	1	
2	0	0	0	0	510	1	
3	0	0	0	0	511	1	
4	0	0	0	0	510	1	
5	0	0	0	0	510	1	
6	0	0	0	0	509	2	
7	0	0	0	0	508	1	
8	0	0	0	0	508	1	
9	0	0	0	0	509	1	
10	0	0	0	0	510	1	
11	0	0	0	0	510	1	
12	0	0	0	0	510	1	
13	0	0	0	0	508	1	
14	0	0	0	0	511	2	
15	0	0	0	0	511	1	
0	0	0	0	0	507	1	
1	0	0	0	0	504	1	
2	0	0	0	0	509	1	
3	0	0	0	0	512	1	
4	0	0	0	0	517	2	
5	0	0	0	0	515	1	
6	0	0	0	0	511	2	
7	0	0	0	0	508	1	
8	0	0	0	0	509	1	
9	0	0	0	0	510	1	
10	0	0	0	0	508	1	
11	0	0	0	0	508	1	
12	0	0	0	0	505	1	
13	0	0	0	0	507	1	
14	0	0	0	0	507	2	
15	0	0	0	0	510	1	
0	0	0	0	0	508	1	
1	0	0	0	0	508	1	
2	0	0	0	0	510	1	
3	0	0	0	0	510	1	
4	0	0	0	0	510	1	
5	0	0	0	0	511	1	
6	0	0	0	0	510	2	
7	0	0	0	0	511	1	
8	0	0	0	0	511	1	
9	0	0	0	0	508	1	
10	0	0	0	0	506	1	
11	0	0	0	0	511	1	
12	0	0	0	0	509	1	
13	0	0	0	0	509	1	
14	0	0	0	0	509	2	
15	0	0	0	0	508	1	
0	0	0	0	0	508	0	
1	0	0	0	0	511	1	
2	0	0	0	0	510	1	
3	0	0	0	0	509	1	
4	0	0	0	0	510	1	
5	0	0	0	0	511	1	
6	0	0	0	0	512	2	
7	0	0	0	0	509	1	
8	0	0	0	0	509	0	
9	0	0	0	0	509	1	
10	0	0	0	0	511	1	
11	0	0	0	0	511	1	
12	0	0	0	0	511	1	
13	0	0	0	0	509	1	
14	0	0	0	0	506	2	
15	0	0	0	0	508	1	
0	0	0	0	0	510	1	
1	0	0	0	0	510	1	
2	0	0	0	0	509	1	
3	0	0	0	0	509	1	
4	0	0	0	0	510	1	
5	0	0	0	0	513	1	
6	0	0	0	0	513	2	
7	0	0	0	0	511	1	
8	0	0	0	0	510	1	
9	0	0	0	0	508	1	
10	0	0	0	0	508	1	
11	0	0	0	0	510	1	
12	0	0	0	0	508	1	
13	0	0	0	0	510	1	
14	0	0	0	0	508	2	
15	0	0	0	0	509	1	
0	0	0	0	0	508	1	
1	0	0	0	0	508	1	
2	0	0	0	0	508	1	
3	0	0	0	0	508	1	
4	0	0	0	0	512	1	
5	0	0	0	0	511	1	
6	0	0	0	0	512	2	
7	0	0	0	0	510	1	
8	0	0	0	0	511	1	
9	0	0	0	0	510	1	
10	0	0	0	0	511	1	
11	0	0	0	0	508	1	
12	0	0	0	0	509	1	
13	0	0	0	0	506	1	
14	0	0	0	0	504	2	
15	0	0	0	0	505	1	
0	0	0	0	0	505	0	
1	0	0	0	0	507	1	
2	0	0	0	0	509	1	
3	0	0	0	0	508	1	
4	0	0	0	0	503	1	
5	0	0	0	0	497	1	
6	0	0	0	0	501	2	
7	0	0	0	0	507	1	
8	0	0	0	0	526	1	
9	0	0	0	0	542	2	
10	0	0	0	0	528	2	
11	0	0	0	0	517	1	
12	0	0	0	0	508	1	
13	0	0	0	0	505	1	
14	0	0	0	0	504	2	
15	0	0	0	0	505	1	
0	0	0	0	0	506	1	
1	0	0	0	0	510	1	
2	0	0	0	0	508	1	
3	0	0	0	0	506	1	
4	0	0	0	0	493	1	
5	0	0	0	0	489	1	
6	0	0	0	0	504	2	
7	0	0	0	0	511	1	
8	0	0	0	0	508	1	
9	0	0	0	0	517	1	
10	0	0	0	0	537	2	
11	0	0	0	0	545	2	
12	0	0	0	0	527	2	
13	0	0	0	0	510	1	
14	0	0	0	0	501	2	
15	0	0	0	0	500	1	
0	0	0	0	0	500	1	
1	0	0	0	0	504	1	
2	0	0	0	0	507	1	
3	0	0	0	0	507	1	
4	0	0	0	0	505	1	
5	0	0	0	0	505	1	
6	0	0	0	0	508	2	
7	0	0	0	0	508	1	
8	0	0	0	0	512	1	
9	0	0	0	0	512	1	
10	0	0	0	0	511	1	
11	0	0	0	0	513	1	
12	0	0	0	0	510	1	
13	0	0	0	0	508	1	
14	0	0	0	0	507	2	
15	0	0	0	0	505	1	
0	0	0	0	0	508	1	
1	0	0	0	0	504	1	
2	0	0	0	0	507	1	
3	0	0	0	0	508	1	
4	0	0	0	0	509	1	
5	0	0	0	0	508	1	
6	0	0	0	0	508	2	
7	0	0	0	0	509	1	
8	0	0	0	0	512	1	
9	0	0	0	0	510	1	
10	0	0	0	0	509	1	
11	0	0	0	0	511	1	
12	0	0	0	0	513	1	
13	0	0	0	0	510	1	
14	0	0	0	0	509	2	
15	0	0	0	0	509	1	
0	0	0	0	0	509	1	
1	0	0	0	0	508	1	
2	0	0	0	0	507	1	
3	0	0	0	0	508	1	
4	0	0	0	0	511	1	
5	0	0	0	0	508	1	
6	0	0	0	0	507	2	
7	0	0	0	0	504	1	
8	0	0	0	0	508	1	
9	0	0	0	0	508	1	
10	0	0	0	0	513	1	
11	0	0	0	0	519	2	
12	0	0	0	0	519	1	
13	0	0	0	0	511	1	
14	0	0	0	0	509	1	
15	0	0	0	0	512	1	
0	0	0	0	0	510	1	
1	0	0	0	0	510	1	
2	0	0	0	0	510	1	
3	0	0	0	0	513	1	
4	0	0	0	0	508	1	
5	0	0	0	0	508	1	
6	0	0	0	0	508	1	
7	0	0	0	0	509	1	
8	0	0	0	0	510	1	
9	0	0	0	0	510	1	
10	0	0	0	0	509	1	
11	0	0	0	0	508	1	
12	0	0	0	0	509	1	
13	0	0	0	0	510	1	
14	0	0	0	0	508	1	
15	0	0	0	0	511	1	
0	0	0	0	0	508	1	
1	0	0	0	0	509	1	
2	0	0	0	0	510	1	
3	0	0	0	0	508	1	
4	0	0	0	0	512	1	
5	0	0	0	0	487	1	
6	0	0	0	0	476	2	
7	0	0	0	0	485	1	
8	0	0	0	0	501	1	
9	0	0	0	0	538	2	
10	0	0	0	0	558	2	
11	0	0	0	0	543	2	
12	0	0	0	0	520	1	
13	0	0	0	0	509	1	
14	0	0	0	0	506	2	
15	0	0	0	0	507	1	
0	0	0	0	0	505	1	
1	0	0	0	0	505	1	
2	0	0	0	0	504	1	
3	0	0	0	0	506	1	
4	0	0	0	0	504	1	
5	0	0	0	0	508	1	
6	0	0	0	0	508	2	
7	0	0	0	0	510	1	
8	0	0	0	0	510	1	
9	0	0	0	0	511	1	
10	0	0	0	0	511	1	
11	0	0	0	0	508	1	
12	0	0	0	0	509	1	
13	0	0	0	0	508	1	
14	0	0	0	0	508	2	
15	0	0	0	0	507	1	
0	0	0	0	0	505	1	
1	0	0	0	0	507	1	
2	0	0	0	0	513	1	
3	0	0	0	0	514	1	
4	0	0	0	0	511	1	
5	0	0	0	0	508	1	
6	0	0	0	0	509	2	
7	0	0	0	0	507	1	
8	0	0	0	0	506	1	
9	0	0	0	0	510	1	
10	0	0	0	0	510	1	
11	0	0	0	0	512	1	
12	0	0	0	0	510	1	
13	0	0	0	0	510	1	
14	0	0	0	0	512	2	
15	0	0	0	0	512	1	
0	0	0	0	0	505	1	
1	0	0	0	0	502	1	
2	0	0	0	0	500	1	
3	0	0	0	0	504	1	
4	0	0	0	0	505	1	
5	0	0	0	0	522	2	
6	0	0	0	0	524	2	
7	0	0	0	0	501	1	
8	0	0	0	0	508	2	
9	0	0	0	0	509	1	
10	0	0	0	0	507	1	
11	0	0	0	0	515	1	
12	0	0	0	0	518	1	
13	0	0	0	0	515	2	
14	0	0	0	0	511	2	
15	0	0	0	0	509	1	
0	0	0	0	0	508	1	
1	0	0	0	0	509	1	
2	0	0	0	0	511	1	
3	0	0	0	0	510	1	
4	0	0	0	0	510	1	
5	0	0	0	0	509	1	
6	0	0	0	0	507	2	
7	0	0	0	0	507	1	
8	0	0	0	0	508	0	
9	0	0	0	0	511	1	
10	0	0	0	0	509	1	
11	0	0	0	0	511	1	
12	0	0	0	0	512	2	
13	0	0	0	0	508	1	
14	0	0	0	0	508	2	
15	0	0	0	0	499	1	
0	0	0	0	0	502	0	
1	0	0	0	0	512	1	
2	0	0	0	0	515	1	
3	0	0	0	0	516	1	
4	0	0	0	0	514	1	
5	0	0	0	0	510	1	
6	0	0	0	0	510	2	
7	0	0	0	0	505	1	
8	0	0	0	0	507	0	
9	0	0	0	0	508	1	
10	0	0	0	0	511	1	
11	0	0	0	0	512	1	
12	0	0	0	0	511	1	
13	0	0	0	0	511	1	
14	0	0	0	0	511	1	
15	0	0	0	0	511	1	
0	0	0	0	0	511	1	
1	0	0	0	0	509	1	
2	0	0	0	0	508	1	
3	0	0	0	0	508	1	
4	0	0	0	0	506	1	
5	0	0	0	0	509	1	
6	0	0	0	0	511	2	
7	0	0	0	0	505	1	
8	0	0	0	0	503	1	
9	0	0	0	0	502	1	
10	0	0	0	0	503	1	
11	0	0	0	0	510	1	
12	0	0	0	0	519	1	
13	0	0	0	0	518	1	
14	0	0	0	0	519	2	
15	0	0	0	0	515	1	
0	0	0	0	0	510	1	
1	0	0	0	0	508	1	
2	0	0	0	0	507	1	
3	0	0	0	0	507	1	
4	0	0	0	0	508	1	
5	0	0	0	0	508	1	
6	0	0	0	0	508	2	
7	0	0	0	0	507	1	
8	0	0	0	0	508	0	
9	0	0	0	0	508	1	
10	0	0	0	0	509	1	
11	0	0	0	0	510	1	
12	0	0	0	0	510	1	
13	0	0	0	0	510	1	
14	0	0	0	0	507	2	
15	0	0	0	0	504	1	
0	0	0	0	0	507	0	
1	0	0	0	0	506	1	
2	0	0	0	0	512	1	
3	0	0	0	0	506	1	
4	0	0	0	0	505	1	
5	0	0	0	0	516	1	
6	0	0	0	0	523	2	
7	0	0	0	0	518	1	
8	0	0	0	0	521	2	
9	0	0	0	0	518	1	
10	0	0	0	0	510	1	
11	0	0	0	0	508	1	
12	0	0	0	0	508	1	
13	0	0	0	0	508	1	
14	0	0	0	0	506	2	
15	0	0	0	0	507	1	
0	0	0	0	0	507	1	
1	0	0	0	0	509	1	
2	0	0	0	0	508	1	
3	0	0	0	0	507	1	
4	0	0	0	0	508	1	
5	0	0	0	0	508	1	
6	0	0	0	0	505	2	
7	0	0	0	0	508	1	
8	0	0	0	0	508	1	
9	0	0	0	0	509	1	
10	0	0	0	0	508	1	
11	0	0	0	0	509	1	
12	0	0	0	0	509	1	
13	0	0	0	0	509	1	
14	0	0	0	0	511	2	
15	0	0	0	0	513	1	
0	0	0	0	0	510	1	
1	0	0	0	0	510	1	
2	0	0	0	0	508	1	
3	0	0	0	0	508	1	
4	0	0	0	0	511	1	
5	0	0	0	0	511	1	
6	0	0	0	0	511	2	
7	0	0	0	0	509	1	
8	0	0	0	0	508	1	
9	0	0	0	0	508	1	
10	0	0	0	0	508	1	
11	0	0	0	0	510	1	
12	0	0	0	0	508	1	
13	0	0	0	0	507	1	
14	0	0	0	0	509	2	
15	0	0	0	0	497	1	
0	0	0	0	0	493	1	
1	0	0	0	0	496	1	
2	0	0	0	0	505	1	
3	0	0	0	0	520	1	
4	0	0	0	0	480	1	
5	0	0	0	0	521	2	
6	0	0	0	0	536	2	
7	0	0	0	0	524	1	
8	0	0	0	0	536	2	
9	0	0	0	0	532	2	
10	0	0	0	0	522	2	
11	0	0	0	0	521	1	
12	0	0	0	0	508	1	
13	0	0	0	0	502	1	
14	0	0	0	0	503	2	
15	0	0	0	0	502	1	
0	0	0	0	0	502	1	
1	0	0	0	0	508	1	
2	0	0	0	0	509	1	
3	0	0	0	0	508	1	
4	0	0	0	0	506	1	
5	0	0	0	0	507	1	
6	0	0	0	0	505	2	
7	0	0	0	0	508	1	
8	0	0	0	0	506	1	
9	0	0	0	0	508	1	
10	0	0	0	0	512	1	
11	0	0	0	0	506	1	
12	0	0	0	0	496	1	
13	0	0	0	0	502	1	
14	0	0	0	0	508	1	
15	0	0	0	0	522	1	
0	0	0	0	0	518	1	
1	0	0	0	0	512	1	
2	0	0	0	0	510	1	
3	0	0	0	0	510	1	
4	0	0	0	0	507	1	
5	0	0	0	0	508	1	
6	0	0	0	0	512	1	
7	0	0	0	0	511	1	
8	0	0	0	0	508	1	
9	0	0	0	0	510	1	
10	0	0	0	0	508	1	
11	0	0	0	0	508	1	
12	0	0	0	0	508	1	
13	0	0	0	0	509	1	
14	0	0	0	0	510	2	
15	0	0	0	0	508	1	
0	0	0	0	0	511	1	
1	0	0	0	0	512	1	
2	0	0	0	0	513	1	
3	0	0	0	0	513	1	
4	0	0	0	0	511	1	
5	0	0	0	0	511	1	
6	0	0	0	0	508	2	
7	0	0	0	0	510	1	
8	0	0	0	0	511	1	
9	0	0	0	0	508	1	
10	0	0	0	0	505	1	
11	0	0	0	0	507	1	
12	0	0	0	0	507	1	
13	0	0	0	0	510	1	
14	0	0	0	0	512	2	
15	0	0	0	0	514	1	
0	0	0	0	0	511	1	
1	0	0	0	0	510	1	
2	0	0	0	0	512	1	
3	0	0	0	0	512	1	
4	0	0	0	0	507	1	
5	0	0	0	0	510	1	
6	0	0	0	0	505	2	
7	0	0	0	0	507	1	
8	0	0	0	0	508	1	
9	0	0	0	0	507	1	
10	0	0	0	0	505	1	
11	0	0	0	0	501	1	
12	0	0	0	0	499	1	
13	0	0	0	0	511	1	
14	0	0	0	0	470	2	
15	0	0	0	0	457	1	
0	0	0	0	0	516	1	
1	0	0	0	0	568	2	
2	0	0	0	0	567	2	
3	0	0	0	0	550	1	
4	0	0	0	0	523	1	
5	0	0	0	0	508	1	
6	0	0	0	0	505	2	
7	0	0	0	0	504	1	
8	0	0	0	0	503	1	
9	0	0	0	0	502	1	
10	0	0	0	0	501	1	
11	0	0	0	0	505	1	
12	0	0	0	0	506	1	
13	0	0	0	0	505	1	
14	0	0	0	0	507	2	
15	0	0	0	0	508	1	
0	0	0	0	0	507	1	
1	0	0	0	0	509	1	
2	0	0	0	0	511	1	
3	0	0	0	0	509	1	
4	0	0	0	0	508	1	
5	0	0	0	0	512	1	
6	0	0	0	0	508	2	
7	0	0	0	0	501	1	
8	0	0	0	0	504	1	
9	0	0	0	0	513	1	
10	0	0	0	0	513	1	
11	0	0	0	0	501	1	
12	0	0	0	0	504	1	
13	0	0	0	0	509	1	
14	0	0	0	0	521	2	
15	0	0	0	0	525	1	
0	0	0	0	0	511	0	
1	0	0	0	0	510	1	
2	0	0	0	0	509	1	
3	0	0	0	0	510	1	
4	0	0	0	0	510	1	
5	0	0	0	0	510	1	
6	0	0	0	0	511	2	
7	0	0	0	0	508	1	
8	0	0	0	0	509	1	
9	0	0	0	0	507	1	
10	0	0	0	0	508	1	
11	0	0	0	0	506	1	
12	0	0	0	0	501	1	
13	0	0	0	0	504	1	
14	0	0	0	0	508	2	
15	0	0	0	0	515	1	
0	0	0	0	0	497	0	
1	0	0	0	0	514	1	
2	0	0	0	0	526	1	
3	0	0	0	0	508	1	
4	0	0	0	0	500	1	
5	0	0	0	0	503	1	
6	0	0	0	0	511	2	
7	0	0	0	0	527	2	
8	0	0	0	0	521	2	
9	0	0	0	0	513	1	
10	0	0	0	0	511	1	
11	0	0	0	0	508	1	
12	0	0	0	0	508	1	
13	0	0	0	0	508	1	
14	0	0	0	0	507	2	
15	0	0	0	0	508	1	
0	0	0	0	0	508	1	
1	0	0	0	0	506	1	
2	0	0	0	0	508	1	
3	0	0	0	0	509	1	
4	0	0	0	0	508	1	
5	0	0	0	0	510	1	
6	0	0	0	0	510	2	
7	0	0	0	0	510	1	
8	0	0	0	0	513	1	
9	0	0	0	0	510	1	
10	0	0	0	0	499	1	
11	0	0	0	0	499	1	
12	0	0	0	0	510	1	
13	0	0	0	0	508	1	
14	0	0	0	0	507	2	
15	0	0	0	0	507	1	
0	0	0	0	0	531	1	
1	0	0	0	0	520	1	
2	0	0	0	0	511	1	
3	0	0	0	0	512	1	
4	0	0	0	0	508	1	
5	0	0	0	0	504	1	
6	0	0	0	0	508	2	
7	0	0	0	0	510	1	
8	0	0	0	0	512	0	
9	0	0	0	0	508	1	
10	0	0	0	0	512	1	
11	0	0	0	0	510	1	
12	0	0	0	0	510	1	
13	0	0	0	0	510	1	
14	0	0	0	0	506	2	
15	0	0	0	0	510	1	
0	0	0	0	0	508	1	
1	0	0	0	0	508	1	
2	0	0	0	0	512	1	
3	0	0	0	0	520	1	
4	0	0	0	0	499	1	
5	0	0	0	0	481	1	
6	0	0	0	0	488	2	
7	0	0	0	0	515	1	
8	0	0	0	0	521	1	
9	0	0	0	0	521	1	
10	0	0	0	0	517	1	
11	0	0	0	0	518	1	
12	0	0	0	0	516	2	
13	0	0	0	0	515	1	
14	0	0	0	0	509	2	
15	0	0	0	0	506	1	
0	0	0	0	0	505	1	
1	0	0	0	0	508	1	
2	0	0	0	0	510	1	
3	0	0	0	0	508	1	
4	0	0	0	0	509	1	
5	0	0	0	0	508	1	
6	0	0	0	0	508	2	
7	0	0	0	0	506	1	
8	0	0	0	0	505	1	
9	0	0	0	0	507	1	
10	0	0	0	0	501	1	
11	0	0	0	0	512	1	
12	0	0	0	0	519	1	
13	0	0	0	0	519	1	
14	0	0	0	0	511	2	
15	0	0	0	0	481	1	
0	0	0	0	0	476	1	
1	0	0	0	0	505	1	
2	0	0	0	0	528	1	
3	0	0	0	0	545	1	
4	0	0	0	0	531	2	
5	0	0	0	0	520	2	
6	0	0	0	0	513	2	
7	0	0	0	0	511	1	
8	0	0	0	0	503	1	
9	0	0	0	0	500	1	
10	0	0	0	0	503	1	
11	0	0	0	0	503	1	
12	0	0	0	0	504	1	
13	0	0	0	0	510	1	
14	0	0	0	0	511	2	
15	0	0	0	0	512	1	
0	0	0	0	0	506	1	
1	0	0	0	0	508	1	
2	0	0	0	0	508	1	
3	0	0	0	0	507	1	
4	0	0	0	0	507	1	
5	0	0	0	0	500	1	
6	0	0	0	0	519	2	
7	0	0	0	0	537	2	
8	0	0	0	0	506	1	
9	0	0	0	0	467	1	
10	0	0	0	0	496	1	
11	0	0	0	0	526	2	
12	0	0	0	0	535	1	
13	0	0	0	0	520	1	
14	0	0	0	0	513	2	
15	0	0	0	0	509	1	
0	0	0	0	0	508	1	
1	0	0	0	0	508	1	
2	0	0	0	0	507	1	
3	0	0	0	0	507	1	
4	0	0	0	0	507	1	
5	0	0	0	0	507	1	
6	0	0	0	0	509	1	
7	0	0	0	0	509	1	
8	0	0	0	0	511	1	
9	0	0	0	0	512	1	
10	0	0	0	0	513	1	
11	0	0	0	0	512	1	
12	0	0	0	0	512	1	
13	0	0	0	0	510	1	
14	0	0	0	0	509	1	
15	0	0	0	0	508	1	
0	0	0	0	0	505	1	
1	0	0	0	0	499	1	
2	0	0	0	0	508	1	
3	0	0	0	0	513	1	
4	0	0	0	0	513	1	
5	0	0	0	0	514	1	
6	0	0	0	0	506	1	
7	0	0	0	0	500	1	
8	0	0	0	0	506	1	
9	0	0	0	0	513	1	
10	0	0	0	0	519	1	
11	0	0	0	0	513	1	
12	0	0	0	0	513	1	
13	0	0	0	0	516	1	
14	0	0	0	0	511	2	
15	0	0	0	0	507	1	
0	0	0	0	0	505	1	
1	0	0	0	0	509	1	
2	0	0	0	0	507	1	
3	0	0	0	0	507	1	
4	0	0	0	0	508	1	
5	0	0	0	0	508	1	
6	0	0	0	0	509	2	
7	0	0	0	0	508	1	
8	0	0	0	0	509	1	
9	0	0	0	0	510	1	
10	0	0	0	0	509	1	
11	0	0	0	0	510	1	
12	0	0	0	0	511	1	
13	0	0	0	0	521	2	
14	0	0	0	0	515	2	
15	0	0	0	0	487	1	
0	0	0	0	0	509	1	
1	0	0	0	0	515	1	
2	0	0	0	0	509	1	
3	0	0	0	0	518	1	
4	0	0	0	0	513	1	
5	0	0	0	0	508	1	
6	0	0	0	0	510	2	
7	0	0	0	0	507	1	
8	0	0	0	0	511	1	
9	0	0	0	0	509	1	
10	0	0	0	0	503	1	
11	0	0	0	0	500	1	
12	0	0	0	0	508	1	
13	0	0	0	0	514	1	
14	0	0	0	0	512	2	
15	0	0	0	0	511	1	
0	0	0	0	0	511	1	
1	0	0	0	0	512	1	
2	0	0	0	0	511	1	
3	0	0	0	0	509	1	
4	0	0	0	0	506	1	
5	0	0	0	0	510	1	
6	0	0	0	0	510	2	
7	0	0	0	0	505	1	
8	0	0	0	0	504	1	
9	0	0	0	0	505	1	
10	0	0	0	0	508	1	
11	0	0	0	0	511	1	
12	0	0	0	0	519	1	
13	0	0	0	0	521	1	
14	0	0	0	0	510	2	
15	0	0	0	0	508	1	
0	0	0	0	0	508	1	
1	0	0	0	0	507	1	
2	0	0	0	0	510	1	
3	0	0	0	0	514	1	
4	0	0	0	0	511	1	
5	0	0	0	0	509	1	
6	0	0	0	0	502	2	
7	0	0	0	0	504	1	
8	0	0	0	0	510	1	
9	0	0	0	0	510	1	
10	0	0	0	0	505	1	
11	0	0	0	0	504	1	
12	0	0	0	0	512	1	
13	0	0	0	0	524	2	
14	0	0	0	0	525	2	
15	0	0	0	0	513	1	
0	0	0	0	0	484	0	
1	0	0	0	0	471	1	
2	0	0	0	0	506	1	
3	0	0	0	0	539	2	
4	0	0	0	0	521	1	
5	0	0	0	0	507	1	
6	0	0	0	0	506	2	
7	0	0	0	0	511	1	
8	0	0	0	0	505	0	
9	0	0	0	0	507	1	
10	0	0	0	0	514	1	
11	0	0	0	0	512	1	
12	0	0	0	0	516	1	
13	0	0	0	0	513	1	
14	0	0	0	0	510	2	
15	0	0	0	0	509	1	
0	0	0	0	0	509	1	
1	0	0	0	0	510	1	
2	0	0	0	0	509	1	
3	0	0	0	0	507	1	
4	0	0	0	0	502	1	
5	0	0	0	0	510	1	
6	0	0	0	0	516	2	
7	0	0	0	0	515	1	
8	0	0	0	0	505	1	
9	0	0	0	0	496	1	
10	0	0	0	0	502	1	
11	0	0	0	0	506	1	
12	0	0	0	0	505	1	
13	0	0	0	0	513	1	
14	0	0	0	0	526	2	
15	0	0	0	0	523	1	
0	0	0	0	0	512	1	
1	0	0	0	0	510	1	
2	0	0	0	0	509	1	
3	0	0	0	0	507	1	
4	0	0	0	0	507	1	
5	0	0	0	0	508	1	
6	0	0	0	0	508	2	
7	0	0	0	0	508	1	
8	0	0	0	0	510	0	
9	0	0	0	0	508	1	
10	0	0	0	0	510	1	
11	0	0	0	0	509	1	
12	0	0	0	0	511	2	
13	0	0	0	0	513	1	
14	0	0	0	0	508	2	
15	0	0	0	0	506	1	
0	0	0	0	0	515	0	
1	0	0	0	0	513	1	
2	0	0	0	0	513	1	
3	0	0	0	0	487	1	
4	0	0	0	0	493	1	
5	0	0	0	0	519	2	
6	0	0	0	0	521	2	
7	0	0	0	0	510	1	
8	0	0	0	0	508	1	
9	0	0	0	0	523	1	
10	0	0	0	0	515	1	
11	0	0	0	0	507	1	
12	0	0	0	0	507	1	
13	0	0	0	0	507	1	
14	0	0	0	0	508	2	
15	0	0	0	0	505	1	
0	0	0	0	0	503	1	
1	0	0	0	0	511	1	
2	0	0	0	0	513	1	
3	0	0	0	0	513	1	
4	0	0	0	0	511	1	
5	0	0	0	0	511	1	
6	0	0	0	0	515	2	
7	0	0	0	0	510	1	
8	0	0	0	0	499	1	
9	0	0	0	0	502	1	
10	0	0	0	0	492	1	
11	0	0	0	0	496	1	
12	0	0	0	0	491	1	
13	0	0	0	0	527	2	
14	0	0	0	0	540	2	
15	0	0	0	0	539	2	
0	0	0	0	0	509	1	
1	0	0	0	0	503	1	
2	0	0	0	0	510	1	
3	0	0	0	0	507	1	
4	0	0	0	0	510	1	
5	0	0	0	0	499	1	
6	0	0	0	0	503	2	
7	0	0	0	0	510	1	
8	0	0	0	0	509	1	
9	0	0	0	0	509	1	
10	0	0	0	0	507	1	
11	0	0	0	0	508	1	
12	0	0	0	0	512	1	
13	0	0	0	0	511	1	
14	0	0	0	0	511	2	
15	0	0	0	0	511	1	
0	0	0	0	0	511	1	
1	0	0	0	0	512	1	
2	0	0	0	0	514	1	
3	0	0	0	0	511	1	
4	0	0	0	0	503	1	
5	0	0	0	0	509	1	
6	0	0	0	0	514	2	
7	0	0	0	0	509	1	
8	0	0	0	0	511	1	
9	0	0	0	0	511	1	
10	0	0	0	0	507	1	
11	0	0	0	0	506	1	
12	0	0	0	0	507	1	
13	0	0	0	0	511	1	
14	0	0	0	0	508	2	
15	0	0	0	0	509	1	
0	0	0	0	0	508	1	
1	0	0	0	0	511	1	
2	0	0	0	0	510	1	
3	0	0	0	0	508	1	
4	0	0	0	0	510	1	
5	0	0	0	0	512	1	
6	0	0	0	0	506	2	
7	0	0	0	0	517	1	
8	0	0	0	0	524	2	
9	0	0	0	0	498	1	
10	0	0	0	0	506	1	
11	0	0	0	0	457	1	
12	0	0	0	0	497	1	
13	0	0	0	0	496	1	
14	0	0	0	0	529	2	
15	0	0	0	0	569	2	
0	0	0	0	0	531	2	
1	0	0	0	0	512	1	
2	0	0	0	0	504	1	
3	0	0	0	0	500	1	
4	0	0	0	0	503	1	
5	0	0	0	0	508	1	
6	0	0	0	0	512	1	
7	0	0	0	0	504	1	
8	0	0	0	0	505	1	
9	0	0	0	0	511	1	
10	0	0	0	0	513	1	
11	0	0	0	0	510	1	
12	0	0	0	0	510	1	
13	0	0	0	0	512	1	
14	0	0	0	0	512	1	
15	0	0	0	0	511	1	
0	0	0	0	0	509	1	
1	0	0	0	0	508	1	
2	0	0	0	0	506	1	
3	0	0	0	0	509	1	
4	0	0	0	0	512	1	
5	0	0	0	0	514	1	
6	0	0	0	0	511	2	
7	0	0	0	0	507	1	
8	0	0	0	0	504	1	
9	0	0	0	0	493	1	
10	0	0	0	0	506	1	
11	0	0	0	0	513	1	
12	0	0	0	0	523	1	
13	0	0	0	0	517	1	
14	0	0	0	0	509	2	
15	0	0	0	0	508	2	
0	0	0	0	0	504	1	
1	0	0	0	0	507	1	
2	0	0	0	0	504	1	
3	0	0	0	0	502	1	
4	0	0	0	0	512	1	
5	0	0	0	0	513	1	
6	0	0	0	0	510	2	
7	0	0	0	0	510	1	
8	0	0	0	0	509	1	
9	0	0	0	0	510	1	
10	0	0	0	0	504	1	
11	0	0	0	0	495	1	
12	0	0	0	0	511	1	
13	0	0	0	0	532	2	
14	0	0	0	0	527	2	
15	0	0	0	0	503	1	
0	0	0	0	0	472	1	
1	0	0	0	0	517	2	
2	0	0	0	0	529	2	
3	0	0	0	0	508	1	
4	0	0	0	0	503	1	
5	0	0	0	0	510	1	
6	0	0	0	0	511	2	
7	0	0	0	0	515	1	
8	0	0	0	0	514	1	
9	0	0	0	0	513	1	
10	0	0	0	0	510	1	
11	0	0	0	0	506	1	
12	0	0	0	0	509	1	
13	0	0	0	0	508	1	
14	0	0	0	0	508	2	
15	0	0	0	0	506	1	
0	0	0	0	0	510	1	
1	0	0	0	0	511	1	
2	0	0	0	0	508	1	
3	0	0	0	0	509	1	
4	0	0	0	0	508	1	
5	0	0	0	0	509	1	
6	0	0	0	0	514	2	
7	0	0	0	0	505	1	
8	0	0	0	0	486	1	
9	0	0	0	0	487	1	
10	0	0	0	0	513	1	
11	0	0	0	0	541	2	
12	0	0	0	0	523	1	
13	0	0	0	0	515	1	
14	0	0	0	0	513	2	
15	0	0	0	0	507	1	
0	0	0	0	0	509	1	
1	0	0	0	0	510	1	
2	0	0	0	0	505	1	
3	0	0	0	0	510	1	
4	0	0	0	0	513	1	
5	0	0	0	0	511	1	
6	0	0	0	0	514	2	
7	0	0	0	0	507	1	
8	0	0	0	0	504	0	
9	0	0	0	0	512	1	
10	0	0	0	0	517	1	
11	0	0	0	0	508	1	
12	0	0	0	0	478	1	
13	0	0	0	0	475	1	
14	0	0	0	0	499	2	
15	0	0	0	0	521	1	
0	0	0	0	0	537	1	
1	0	0	0	0	514	1	
2	0	0	0	0	523	1	
3	0	0	0	0	523	2	
4	0	0	0	0	503	1	
5	0	0	0	0	506	1	
6	0	0	0	0	513	2	
7	0	0	0	0	521	1	
8	0	0	0	0	513	1	
9	0	0	0	0	506	1	
10	0	0	0	0	499	1	
11	0	0	0	0	507	1	
12	0	0	0	0	514	1	
13	0	0	0	0	519	2	
14	0	0	0	0	507	2	
15	0	0	0	0	507	1	
0	0	0	0	0	503	1	
1	0	0	0	0	491	1	
2	0	0	0	0	500	1	
3	0	0	0	0	515	1	
4	0	0	0	0	517	1	
5	0	0	0	0	509	1	
6	0	0	0	0	491	1	
7	0	0	0	0	482	1	
8	0	0	0	0	508	1	
9	0	0	0	0	547	2	
10	0	0	0	0	550	2	
11	0	0	0	0	517	1	
12	0	0	0	0	496	1	
13	0	0	0	0	509	1	
14	0	0	0	0	512	2	
15	0	0	0	0	504	1	
0	0	0	0	0	500	0	
1	0	0	0	0	505	1	
2	0	0	0	0	507	1	
3	0	0	0	0	507	1	
4	0	0	0	0	504	1	
5	0	0	0	0	508	1	
6	0	0	0	0	513	2	
7	0	0	0	0	513	1	
8	0	0	0	0	515	1	
9	0	0	0	0	516	1	
10	0	0	0	0	519	1	
11	0	0	0	0	520	1	
12	0	0	0	0	508	1	
13	0	0	0	0	502	1	
14	0	0	0	0	504	2	
15	0	0	0	0	505	1	
0	0	0	0	0	508	1	
1	0	0	0	0	516	1	
2	0	0	0	0	507	1	
3	0	0	0	0	494	1	
4	0	0	0	0	476	1	
5	0	0	0	0	480	1	
6	0	0	0	0	544	2	
7	0	0	0	0	542	2	
8	0	0	0	0	519	1	
9	0	0	0	0	526	1	
10	0	0	0	0	506	1	
11	0	0	0	0	502	1	
12	0	0	0	0	499	1	
13	0	0	0	0	503	1	
14	0	0	0	0	511	2	
15	0	0	0	0	504	1	
0	0	0	0	0	498	1	
1	0	0	0	0	504	1	
2	0	0	0	0	511	1	
3	0	0	0	0	514	1	
4	0	0	0	0	509	1	
5	0	0	0	0	509	1	
6	0	0	0	0	509	2	
7	0	0	0	0	504	1	
8	0	0	0	0	516	1	
9	0	0	0	0	506	1	
10	0	0	0	0	481	1	
11	0	0	0	0	479	1	
12	0	0	0	0	511	1	
13	0	0	0	0	562	2	
14	0	0	0	0	554	2	
15	0	0	0	0	527	1	
0	0	0	0	0	514	1	
1	0	0	0	0	509	1	
2	0	0	0	0	492	1	
3	0	0	0	0	505	1	
4	0	0	0	0	514	1	
5	0	0	0	0	511	1	
6	0	0	0	0	506	2	
7	0	0	0	0	508	1	
8	0	0	0	0	513	1	
9	0	0	0	0	511	1	
10	0	0	0	0	508	1	
11	0	0	0	0	508	1	
12	0	0	0	0	509	1	
13	0	0	0	0	512	1	
14	0	0	0	0	512	2	
15	0	0	0	0	516	1	
0	0	0	0	0	511	1	
1	0	0	0	0	504	1	
2	0	0	0	0	510	1	
3	0	0	0	0	500	1	
4	0	0	0	0	505	1	
5	0	0	0	0	514	1	
6	0	0	0	0	521	2	
7	0	0	0	0	515	1	
8	0	0	0	0	508	1	
9	0	0	0	0	512	1	
10	0	0	0	0	518	1	
11	0	0	0	0	511	1	
12	0	0	0	0	508	1	
13	0	0	0	0	514	1	
14	0	0	0	0	515	2	
15	0	0	0	0	502	1	
0	0	0	0	0	500	1	
1	0	0	0	0	508	1	
2	0	0	0	0	506	1	
3	0	0	0	0	507	1	
4	0	0	0	0	505	1	
5	0	0	0	0	503	1	
6	0	0	0	0	506	1	
7	0	0	0	0	512	1	
8	0	0	0	0	508	1	
9	0	0	0	0	495	1	
10	0	0	0	0	500	1	
11	0	0	0	0	518	1	
12	0	0	0	0	525	2	
13	0	0	0	0	496	1	
14	0	0	0	0	483	1	
15	0	0	0	0	533	2	
0	0	0	0	0	558	2	
1	0	0	0	0	520	1	
2	0	0	0	0	494	1	
3	0	0	0	0	505	1	
4	0	0	0	0	506	1	
5	0	0	0	0	506	1	
6	0	0	0	0	509	1	
7	0	0	0	0	505	1	
8	0	0	0	0	502	1	
9	0	0	0	0	503	1	
10	0	0	0	0	510	1	
11	0	0	0	0	513	1	
12	0	0	0	0	515	1	
13	0	0	0	0	510	1	
14	0	0	0	0	509	2	
15	0	0	0	0	492	1	
0	0	0	0	0	501	1	
1	0	0	0	0	531	2	
2	0	0	0	0	523	1	
3	0	0	0	0	513	1	
4	0	0	0	0	507	1	
5	0	0	0	0	523	2	
6	0	0	0	0	523	2	
7	0	0	0	0	508	1	
8	0	0	0	0	489	1	
9	0	0	0	0	499	1	
10	0	0	0	0	513	1	
11	0	0	0	0	511	1	
12	0	0	0	0	510	1	
13	0	0	0	0	509	1	
14	0	0	0	0	512	2	
15	0	0	0	0	511	1	
0	0	0	0	0	511	2	
1	0	0	0	0	510	1	
2	0	0	0	0	503	1	
3	0	0	0	0	507	1	
4	0	0	0	0	480	1	
5	0	0	0	0	507	1	
6	0	0	0	0	545	2	
7	0	0	0	0	524	2	
8	0	0	0	0	508	1	
9	0	0	0	0	510	1	
10	0	0	0	0	513	1	
11	0	0	0	0	516	1	
12	0	0	0	0	508	1	
13	0	0	0	0	496	1	
14	0	0	0	0	498	2	
15	0	0	0	0	509	1	
0	0	0	0	0	517	1	
1	0	0	0	0	515	1	
2	0	0	0	0	511	1	
3	0	0	0	0	512	1	
4	0	0	0	0	509	1	
5	0	0	0	0	512	1	
6	0	0	0	0	513	2	
7	0	0	0	0	510	1	
8	0	0	0	0	509	1	
9	0	0	0	0	510	1	
10	0	0	0	0	494	1	
11	0	0	0	0	498	1	
12	0	0	0	0	497	1	
13	0	0	0	0	520	2	
14	0	0	0	0	499	2	
15	0	0	0	0	513	1	
0	0	0	0	0	519	1	
1	0	0	0	0	510	1	
2	0	0	0	0	520	1	
3	0	0	0	0	519	1	
4	0	0	0	0	516	1	
5	0	0	0	0	503	1	
6	0	0	0	0	503	2	
7	0	0	0	0	510	1	
8	0	0	0	0	508	1	
9	0	0	0	0	512	1	
10	0	0	0	0	512	1	
11	0	0	0	0	513	1	
12	0	0	0	0	512	1	
13	0	0	0	0	511	1	
14	0	0	0	0	513	2	
15	0	0	0	0	513	1	
0	0	0	0	0	513	0	
1	0	0	0	0	512	1	
2	0	0	0	0	509	1	
3	0	0	0	0	515	1	
4	0	0	0	0	505	1	
5	0	0	0	0	492	1	
6	0	0	0	0	497	2	
7	0	0	0	0	502	1	
8	0	0	0	0	516	0	
9	0	0	0	0	518	1	
10	0	0	0	0	511	1	
11	0	0	0	0	494	1	
12	0	0	0	0	509	1	
13	0	0	0	0	514	1	
14	0	0	0	0	506	2	
15	0	0	0	0	510	1	
0	0	0	0	0	511	0	
1	0	0	0	0	506	1	
2	0	0	0	0	496	1	
3	0	0	0	0	507	1	
4	0	0	0	0	511	1	
5	0	0	0	0	511	1	
6	0	0	0	0	510	2	
7	0	0	0	0	506	1	
8	0	0	0	0	506	1	
9	0	0	0	0	491	1	
10	0	0	0	0	481	1	
11	0	0	0	0	483	1	
12	0	0	0	0	521	2	
13	0	0	0	0	551	2	
14	0	0	0	0	536	2	
15	0	0	0	0	487	1	
0	0	0	0	0	504	1	
1	0	0	0	0	532	2	
2	0	0	0	0	527	1	
3	0	0	0	0	517	1	
4	0	0	0	0	510	1	
5	0	0	0	0	499	1	
6	0	0	0	0	511	2	
7	0	0	0	0	511	1	
8	0	0	0	0	505	1	
9	0	0	0	0	497	1	
10	0	0	0	0	504	1	
11	0	0	0	0	510	1	
12	0	0	0	0	512	1	
13	0	0	0	0	513	2	
14	0	0	0	0	511	2	
15	0	0	0	0	513	1	
0	0	0	0	0	515	1	
1	0	0	0	0	514	1	
2	0	0	0	0	511	1	
3	0	0	0	0	497	1	
4	0	0	0	0	508	1	
5	0	0	0	0	514	1	
6	0	0	0	0	467	2	
7	0	0	0	0	487	1	
8	0	0	0	0	524	1	
9	0	0	0	0	529	2	
10	0	0	0	0	511	1	
11	0	0	0	0	520	1	
12	0	0	0	0	516	1	
13	0	0	0	0	514	1	
14	0	0	0	0	510	2	
15	0	0	0	0	507	1	
0	0	0	0	0	505	1	
1	0	0	0	0	508	1	
2	0	0	0	0	508	1	
3	0	0	0	0	510	1	
4	0	0	0	0	512	1	
5	0	0	0	0	512	1	
6	0	0	0	0	510	2	
7	0	0	0	0	509	1	
8	0	0	0	0	505	1	
9	0	0	0	0	507	1	
10	0	0	0	0	508	1	
11	0	0	0	0	511	1	
12	0	0	0	0	513	1	
13	0	0	0	0	487	1	
14	0	0	0	0	478	2	
15	0	0	0	0	531	2	
0	0	0	0	0	526	2	
1	0	0	0	0	501	1	
2	0	0	0	0	510	1	
3	0	0	0	0	548	2	
4	0	0	0	0	514	1	
5	0	0	0	0	500	1	
6	0	0	0	0	511	2	
7	0	0	0	0	516	1	
8	0	0	0	0	502	1	
9	0	0	0	0	500	1	
10	0	0	0	0	511	1	
11	0	0	0	0	510	1	
12	0	0	0	0	503	1	
13	0	0	0	0	501	1	
14	0	0	0	0	506	2	
15	0	0	0	0	512	1	
0	0	0	0	0	510	1	
1	0	0	0	0	505	1	
2	0	0	0	0	510	1	
3	0	0	0	0	515	1	
4	0	0	0	0	512	1	
5	0	0	0	0	505	1	
6	0	0	0	0	526	2	
7	0	0	0	0	519	1	
8	0	0	0	0	499	1	
9	0	0	0	0	510	1	
10	0	0	0	0	505	1	
11	0	0	0	0	510	1	
12	0	0	0	0	512	1	
13	0	0	0	0	504	1	
14	0	0	0	0	504	2	
15	0	0	0	0	504	1	
0	0	0	0	0	507	1	
1	0	0	0	0	500	1	
2	0	0	0	0	508	1	
3	0	0	0	0	508	1	
4	0	0	0	0	511	1	
5	0	0	0	0	513	1	
6	0	0	0	0	510	2	
7	0	0	0	0	511	1	
8	0	0	0	0	511	1	
9	0	0	0	0	510	1	
10	0	0	0	0	507	1	
11	0	0	0	0	508	1	
12	0	0	0	0	509	1	
13	0	0	0	0	510	1	
14	0	0	0	0	503	2	
15	0	0	0	0	494	1	
0	0	0	0	0	502	1	
1	0	0	0	0	518	1	
2	0	0	0	0	505	1	
3	0	0	0	0	511	1	
4	0	0	0	0	511	1	
5	0	0	0	0	515	1	
6	0	0	0	0	530	1	
7	0	0	0	0	507	1	
8	0	0	0	0	521	2	
9	0	0	0	0	528	2	
10	0	0	0	0	495	1	
11	0	0	0	0	491	1	
12	0	0	0	0	509	1	
13	0	0	0	0	514	1	
14	0	0	0	0	510	1	
15	0	0	0	0	501	1	
0	0	0	0	0	506	1	
1	0	0	0	0	508	1	
2	0	0	0	0	510	1	
3	0	0	0	0	510	1	
4	0	0	0	0	512	1	
5	0	0	0	0	512	1	
6	0	0	0	0	514	2	
7	0	0	0	0	509	1	
8	0	0	0	0	510	1	
9	0	0	0	0	508	1	
10	0	0	0	0	501	1	
11	0	0	0	0	506	1	
12	0	0	0	0	518	1	
13	0	0	0	0	496	1	
14	0	0	0	0	504	2	
15	0	0	0	0	512	1	
0	0	0	0	0	521	1	
1	0	0	0	0	515	1	
2	0	0	0	0	512	1	
3	0	0	0	0	507	1	
4	0	0	0	0	504	1	
5	0	0	0	0	511	1	
6	0	0	0	0	514	2	
7	0	0	0	0	511	1	
8	0	0	0	0	510	1	
9	0	0	0	0	507	1	
10	0	0	0	0	513	1	
11	0	0	0	0	523	2	
12	0	0	0	0	510	1	
13	0	0	0	0	497	1	
14	0	0	0	0	470	2	
15	0	0	0	0	473	1	
0	0	0	0	0	499	1	
1	0	0	0	0	540	2	
2	0	0	0	0	548	2	
3	0	0	0	0	519	1	
4	0	0	0	0	512	1	
5	0	0	0	0	509	1	
6	0	0	0	0	515	2	
7	0	0	0	0	516	1	
8	0	0	0	0	499	1	
9	0	0	0	0	500	1	
10	0	0	0	0	511	1	
11	0	0	0	0	513	1	
12	0	0	0	0	508	1	
13	0	0	0	0	507	1	
14	0	0	0	0	505	2	
15	0	0	0	0	507	1	
0	0	0	0	0	509	1	
1	0	0	0	0	509	1	
2	0	0	0	0	510	1	
3	0	0	0	0	510	1	
4	0	0	0	0	508	1	
5	0	0	0	0	507	1	
6	0	0	0	0	507	2	
7	0	0	0	0	516	1	
8	0	0	0	0	518	2	
9	0	0	0	0	512	1	
10	0	0	0	0	513	1	
11	0	0	0	0	515	1	
12	0	0	0	0	499	1	
13	0	0	0	0	506	1	
14	0	0	0	0	509	2	
15	0	0	0	0	517	1	
0	0	0	0	0	516	1	
1	0	0	0	0	507	1	
2	0	0	0	0	502	1	
3	0	0	0	0	502	1	
4	0	0	0	0	505	1	
5	0	0	0	0	509	1	
6	0	0	0	0	509	2	
7	0	0	0	0	509	1	
8	0	0	0	0	509	0	
9	0	0	0	0	508	1	
10	0	0	0	0	509	1	
11	0	0	0	0	511	1	
12	0	0	0	0	510	1	
13	0	0	0	0	507	1	
14	0	0	0	0	506	2	
15	0	0	0	0	511	1	
0	0	0	0	0	497	0	
1	0	0	0	0	498	1	
2	0	0	0	0	532	2	
3	0	0	0	0	503	1	
4	0	0	0	0	508	1	
5	0	0	0	0	527	2	
6	0	0	0	0	527	2	
7	0	0	0	0	513	1	
8	0	0	0	0	511	0	
9	0	0	0	0	506	1	
10	0	0	0	0	508	1	
11	0	0	0	0	508	1	
12	0	0	0	0	507	1	
13	0	0	0	0	509	1	
14	0	0	0	0	511	2	
15	0	0	0	0	510	1	
0	0	0	0	0	507	1	
1	0	0	0	0	499	1	
2	0	0	0	0	510	1	
3	0	0	0	0	511	1	
4	0	0	0	0	507	1	
5	0	0	0	0	506	1	
6	0	0	0	0	507	2	
7	0	0	0	0	507	1	
8	0	0	0	0	509	1	
9	0	0	0	0	512	1	
10	0	0	0	0	513	1	
11	0	0	0	0	513	1	
12	0	0	0	0	502	1	
13	0	0	0	0	514	1	
14	0	0	0	0	518	2	
15	0	0	0	0	512	1	
0	0	0	0	0	507	1	
1	0	0	0	0	513	1	
2	0	0	0	0	507	1	
3	0	0	0	0	500	1	
4	0	0	0	0	507	1	
5	0	0	0	0	507	1	
6	0	0	0	0	512	2	
7	0	0	0	0	514	1	
8	0	0	0	0	510	0	
9	0	0	0	0	516	2	
10	0	0	0	0	518	1	
11	0	0	0	0	468	1	
12	0	0	0	0	484	1	
13	0	0	0	0	524	2	
14	0	0	0	0	534	2	
15	0	0	0	0	525	2	
0	0	0	0	0	517	1	
1	0	0	0	0	516	1	
2	0	0	0	0	509	1	
3	0	0	0	0	504	1	
4	0	0	0	0	512	1	
5	0	0	0	0	503	1	
6	0	0	0	0	504	2	
7	0	0	0	0	502	1	
8	0	0	0	0	503	0	
9	0	0	0	0	510	1	
10	0	0	0	0	514	1	
11	0	0	0	0	520	1	
12	0	0	0	0	509	1	
13	0	0	0	0	506	1	
14	0	0	0	0	505	2	
15	0	0	0	0	507	1	
0	0	0	0	0	507	1	
1	0	0	0	0	508	1	
2	0	0	0	0	510	1	
3	0	0	0	0	507	1	
4	0	0	0	0	502	1	
5	0	0	0	0	511	1	
6	0	0	0	0	520	2	
7	0	0	0	0	514	1	
8	0	0	0	0	481	1	
9	0	0	0	0	494	1	
10	0	0	0	0	520	1	
11	0	0	0	0	522	2	
12	0	0	0	0	515	1	
13	0	0	0	0	515	1	
14	0	0	0	0	512	2	
15	0	0	0	0	507	1	
0	0	0	0	0	512	1	
1	0	0	0	0	512	1	
2	0	0	0	0	503	1	
3	0	0	0	0	505	1	
4	0	0	0	0	510	1	
5	0	0	0	0	513	1	
6	0	0	0	0	511	2	
7	0	0	0	0	508	1	
8	0	0	0	0	504	1	
9	0	0	0	0	511	1	
10	0	0	0	0	510	1	
11	0	0	0	0	523	1	
12	0	0	0	0	520	1	
13	0	0	0	0	502	1	
14	0	0	0	0	510	2	
15	0	0	0	0	503	1	
0	0	0	0	0	499	1	
1	0	0	0	0	487	1	
2	0	0	0	0	505	1	
3	0	0	0	0	515	1	
4	0	0	0	0	532	2	
5	0	0	0	0	506	1	
6	0	0	0	0	509	2	
7	0	0	0	0	511	1	
8	0	0	0	0	508	1	
9	0	0	0	0	510	1	
10	0	0	0	0	507	1	
11	0	0	0	0	511	1	
12	0	0	0	0	507	1	
13	0	0	0	0	504	1	
14	0	0	0	0	511	2	
15	0	0	0	0	514	1	
0	0	0	0	0	510	1	
1	0	0	0	0	511	1	
2	0	0	0	0	511	1	
3	0	0	0	0	507	1	
4	0	0	0	0	521	1	
5	0	0	0	0	511	1	
6	0	0	0	0	489	2	
7	0	0	0	0	499	1	
8	0	0	0	0	509	1	
9	0	0	0	0	502	1	
10	0	0	0	0	504	1	
11	0	0	0	0	495	1	
12	0	0	0	0	529	2	
13	0	0	0	0	535	2	
14	0	0	0	0	518	1	
15	0	0	0	0	503	1	
0	0	0	0	0	512	1	
1	0	0	0	0	512	1	
2	0	0	0	0	513	1	
3	0	0	0	0	512	1	
4	0	0	0	0	505	1	
5	0	0	0	0	504	1	
6	0	0	0	0	503	1	
7	0	0	0	0	512	1	
8	0	0	0	0	511	1	
9	0	0	0	0	511	1	
10	0	0	0	0	509	1	
11	0	0	0	0	504	1	
12	0	0	0	0	508	1	
13	0	0	0	0	512	1	
14	0	0	0	0	511	1	
15	0	0	0	0	495	1	
0	0	0	0	0	501	1	
1	0	0	0	0	546	2	
2	0	0	0	0	527	2	
3	0	0	0	0	510	1	
4	0	0	0	0	511	1	
5	0	0	0	0	513	1	
6	0	0	0	0	499	2	
7	0	0	0	0	491	1	
8	0	0	0	0	513	1	
9	0	0	0	0	511	1	
10	0	0	0	0	500	1	
11	0	0	0	0	511	1	
12	0	0	0	0	519	1	
13	0	0	0	0	509	1	
14	0	0	0	0	509	2	
15	0	0	0	0	510	1	
0	0	0	0	0	515	1	
1	0	0	0	0	516	1	
2	0	0	0	0	502	1	
3	0	0	0	0	504	1	
4	0	0	0	0	502	1	
5	0	0	0	0	489	1	
6	0	0	0	0	508	2	
7	0	0	0	0	528	2	
8	0	0	0	0	529	2	
9	0	0	0	0	501	1	
10	0	0	0	0	509	1	
11	0	0	0	0	514	1	
12	0	0	0	0	511	1	
13	0	0	0	0	507	1	
14	0	0	0	0	508	2	
15	0	0	0	0	507	1	
0	0	0	0	0	511	1	
1	0	0	0	0	511	1	
2	0	0	0	0	512	1	
3	0	0	0	0	512	1	
4	0	0	0	0	512	1	
5	0	0	0	0	514	1	
6	0	0	0	0	503	2	
7	0	0	0	0	490	1	
8	0	0	0	0	519	1	
9	0	0	0	0	509	1	
10	0	0	0	0	492	1	
11	0	0	0	0	500	1	
12	0	0	0	0	525	2	
13	0	0	0	0	517	1	
14	0	0	0	0	507	2	
15	0	0	0	0	499	1	
0	0	0	0	0	494	1	
1	0	0	0	0	507	1	
2	0	0	0	0	529	2	
3	0	0	0	0	520	2	
4	0	0	0	0	512	1	
5	0	0	0	0	514	1	
6	0	0	0	0	511	2	
7	0	0	0	0	502	1	
8	0	0	0	0	504	1	
9	0	0	0	0	518	1	
10	0	0	0	0	516	1	
11	0	0	0	0	518	1	
12	0	0	0	0	492	1	
13	0	0	0	0	471	1	
14	0	0	0	0	466	2	
15	0	0	0	0	537	2	
0	0	0	0	0	542	2	
1	0	0	0	0	528	1	
2	0	0	0	0	532	2	
3	0	0	0	0	512	1	
4	0	0	0	0	506	1	
5	0	0	0	0	506	1	
6	0	0	0	0	506	2	
7	0	0	0	0	499	1	
8	0	0	0	0	511	0	
9	0	0	0	0	505	1	
10	0	0	0	0	509	1	
11	0	0	0	0	507	1	
12	0	0	0	0	507	1	
13	0	0	0	0	509	1	
14	0	0	0	0	511	2	
15	0	0	0	0	515	1	
0	0	0	0	0	512	0	
1	0	0	0	0	507	1	
2	0	0	0	0	513	1	
3	0	0	0	0	513	1	
4	0	0	0	0	512	1	
5	0	0	0	0	531	2	
6	0	0	0	0	496	2	
7	0	0	0	0	507	1	
8	0	0	0	0	523	1	
9	0	0	0	0	501	1	
10	0	0	0	0	503	1	
11	0	0	0	0	510	1	
12	0	0	0	0	510	1	
13	0	0	0	0	504	1	
14	0	0	0	0	504	2	
15	0	0	0	0	513	1	
0	0	0	0	0	515	1	
1	0	0	0	0	513	1	
2	0	0	0	0	512	1	
3	0	0	0	0	505	1	
4	0	0	0	0	509	1	
5	0	0	0	0	510	1	
6	0	0	0	0	508	2	
7	0	0	0	0	510	1	
8	0	0	0	0	513	1	
9	0	0	0	0	503	1	
10	0	0	0	0	500	1	
11	0	0	0	0	510	1	
12	0	0	0	0	513	1	
13	0	0	0	0	507	1	
14	0	0	0	0	483	2	
15	0	0	0	0	525	2	
0	0	0	0	0	531	1	
1	0	0	0	0	489	1	
2	0	0	0	0	501	1	
3	0	0	0	0	526	2	
4	0	0	0	0	536	2	
5	0	0	0	0	510	1	
6	0	0	0	0	490	2	
7	0	0	0	0	502	1	
8	0	0	0	0	520	1	
9	0	0	0	0	515	1	
10	0	0	0	0	510	1	
11	0	0	0	0	506	1	
12	0	0	0	0	508	1	
13	0	0	0	0	507	1	
14	0	0	0	0	508	2	
15	0	0	0	0	509	1	
0	0	0	0	0	510	0	
1	0	0	0	0	515	2	
2	0	0	0	0	516	1	
3	0	0	0	0	508	1	
4	0	0	0	0	492	1	
5	0	0	0	0	497	1	
6	0	0	0	0	511	2	
7	0	0	0	0	531	2	
8	0	0	0	0	528	2	
9	0	0	0	0	513	1	
10	0	0	0	0	490	1	
11	0	0	0	0	510	1	
12	0	0	0	0	518	1	
13	0	0	0	0	503	1	
14	0	0	0	0	515	2	
15	0	0	0	0	512	1	
0	0	0	0	0	507	1	
1	0	0	0	0	507	1	
2	0	0	0	0	503	1	
3	0	0	0	0	503	1	
4	0	0	0	0	506	1	
5	0	0	0	0	512	1	
6	0	0	0	0	511	2	
7	0	0	0	0	508	1	
8	0	0	0	0	511	1	
9	0	0	0	0	512	1	
10	0	0	0	0	512	1	
11	0	0	0	0	517	1	
12	0	0	0	0	514	1	
13	0	0	0	0	492	1	
14	0	0	0	0	521	2	
15	0	0	0	0	525	2	
0	0	0	0	0	488	1	
1	0	0	0	0	536	2	
2	0	0	0	0	480	1	
3	0	0	0	0	480	1	
4	0	0	0	0	492	1	
5	0	0	0	0	504	1	
6	0	0	0	0	548	2	
7	0	0	0	0	528	2	
8	0	0	0	0	516	1	
9	0	0	0	0	521	2	
10	0	0	0	0	518	1	
11	0	0	0	0	492	1	
12	0	0	0	0	498	1	
13	0	0	0	0	512	1	
14	0	0	0	0	501	2	
15	0	0	0	0	504	1	
0	0	0	0	0	509	1	
1	0	0	0	0	512	1	
2	0	0	0	0	512	1	
3	0	0	0	0	512	1	
4	0	0	0	0	508	1	
5	0	0	0	0	504	1	
6	0	0	0	0	505	2	
7	0	0	0	0	505	1	
8	0	0	0	0	505	1	
9	0	0	0	0	512	1	
10	0	0	0	0	506	1	
11	0	0	0	0	504	1	
12	0	0	0	0	501	1	
13	0	0	0	0	491	1	
14	0	0	0	0	510	2	
15	0	0	0	0	520	2	
0	0	0	0	0	521	2	
1	0	0	0	0	512	2	
2	0	0	0	0	495	1	
3	0	0	0	0	499	1	
4	0	0	0	0	521	1	
5	0	0	0	0	522	1	
6	0	0	0	0	515	1	
7	0	0	0	0	513	1	
8	0	0	0	0	503	1	
9	0	0	0	0	492	1	
10	0	0	0	0	518	1	
11	0	0	0	0	526	2	
12	0	0	0	0	514	1	
13	0	0	0	0	512	1	
14	0	0	0	0	516	1	
15	0	0	0	0	518	1	
0	0	0	0	0	525	2	
1	0	0	0	0	496	1	
2	0	0	0	0	480	1	
3	0	0	0	0	479	1	
4	0	0	0	0	449	1	
5	0	0	0	0	539	2	
6	0	0	0	0	520	1	
7	0	0	0	0	539	2	
8	0	0	0	0	542	2	
9	0	0	0	0	524	2	
10	0	0	0	0	515	1	
11	0	0	0	0	511	1	
12	0	0	0	0	506	1	
13	0	0	0	0	503	1	
14	0	0	0	0	504	2	
15	0	0	0	0	508	1	
0	0	0	0	0	504	1	
1	0	0	0	0	504	1	
2	0	0	0	0	505	1	
3	0	0	0	0	509	1	
4	0	0	0	0	506	1	
5	0	0	0	0	507	1	
6	0	0	0	0	512	2	
7	0	0	0	0	511	1	
8	0	0	0	0	506	1	
9	0	0	0	0	508	1	
10	0	0	0	0	515	1	
11	0	0	0	0	513	1	
12	0	0	0	0	523	1	
13	0	0	0	0	501	1	
14	0	0	0	0	498	2	
15	0	0	0	0	461	1	
0	0	0	0	0	505	1	
1	0	0	0	0	524	2	
2	0	0	0	0	535	2	
3	0	0	0	0	514	1	
4	0	0	0	0	511	1	
5	0	0	0	0	510	1	
6	0	0	0	0	510	2	
7	0	0	0	0	513	1	
8	0	0	0	0	513	1	
9	0	0	0	0	515	1	
10	0	0	0	0	513	1	
11	0	0	0	0	513	1	
12	0	0	0	0	511	1	
13	0	0	0	0	511	1	
14	0	0	0	0	518	2	
15	0	0	0	0	519	1	
0	0	0	0	0	512	1	
1	0	0	0	0	508	1	
2	0	0	0	0	510	1	
3	0	0	0	0	487	1	
4	0	0	0	0	486	1	
5	0	0	0	0	528	2	
6	0	0	0	0	506	2	
7	0	0	0	0	529	2	
8	0	0	0	0	506	1	
9	0	0	0	0	530	1	
10	0	0	0	0	525	2	
11	0	0	0	0	490	1	
12	0	0	0	0	508	1	
13	0	0	0	0	518	2	
14	0	0	0	0	513	2	
15	0	0	0	0	511	1	
0	0	0	0	0	507	1	
1	0	0	0	0	496	1	
2	0	0	0	0	504	1	
3	0	0	0	0	504	1	
4	0	0	0	0	508	1	
5	0	0	0	0	508	1	
6	0	0	0	0	508	2	
7	0	0	0	0	509	2	
8	0	0	0	0	512	1	
9	0	0	0	0	516	1	
10	0	0	0	0	517	1	
11	0	0	0	0	518	1	
12	0	0	0	0	522	2	
13	0	0	0	0	515	1	
14	0	0	0	0	524	2	
15	0	0	0	0	502	1	
0	0	0	0	0	505	1	
1	0	0	0	0	500	1	
2	0	0	0	0	508	1	
3	0	0	0	0	525	1	
4	0	0	0	0	507	1	
5	0	0	0	0	507	1	
6	0	0	0	0	514	2	
7	0	0	0	0	523	1	
8	0	0	0	0	521	1	
9	0	0	0	0	482	1	
10	0	0	0	0	504	1	
11	0	0	0	0	506	1	
12	0	0	0	0	502	1	
13	0	0	0	0	509	1	
14	0	0	0	0	511	2	
15	0	0	0	0	511	1	
0	0	0	0	0	510	0	
1	0	0	0	0	511	1	
2	0	0	0	0	508	1	
3	0	0	0	0	511	1	
4	0	0	0	0	507	1	
5	0	0	0	0	511	1	
6	0	0	0	0	463	1	
7	0	0	0	0	484	1	
8	0	0	0	0	515	1	
9	0	0	0	0	526	2	
10	0	0	0	0	531	2	
11	0	0	0	0	510	1	
12	0	0	0	0	520	1	
13	0	0	0	0	529	2	
14	0	0	0	0	515	2	
15	0	0	0	0	503	1	
0	0	0	0	0	504	1	
1	0	0	0	0	505	1	
2	0	0	0	0	511	1	
3	0	0	0	0	512	1	
4	0	0	0	0	508	1	
5	0	0	0	0	506	1	
6	0	0	0	0	505	2	
7	0	0	0	0	507	1	
8	0	0	0	0	514	1	
9	0	0	0	0	513	2	
10	0	0	0	0	506	1	
11	0	0	0	0	510	1	
12	0	0	0	0	508	1	
13	0	0	0	0	529	2	
14	0	0	0	0	511	2	
15	0	0	0	0	499	1	
0	0	0	0	0	445	0	
1	0	0	0	0	512	1	
2	0	0	0	0	521	1	
3	0	0	0	0	499	1	
4	0	0	0	0	533	2	
5	0	0	0	0	516	1	
6	0	0	0	0	506	2	
7	0	0	0	0	502	1	
8	0	0	0	0	513	0	
9	0	0	0	0	505	1	
10	0	0	0	0	504	1	
11	0	0	0	0	511	1	
12	0	0	0	0	512	1	
13	0	0	0	0	511	1	
14	0	0	0	0	511	2	
15	0	0	0	0	510	1	
0	0	0	0	0	508	1	
1	0	0	0	0	511	1	
2	0	0	0	0	505	1	
3	0	0	0	0	510	1	
4	0	0	0	0	513	1	
5	0	0	0	0	510	1	
6	0	0	0	0	505	2	
7	0	0	0	0	504	1	
8	0	0	0	0	513	1	
9	0	0	0	0	530	1	
10	0	0	0	0	539	2	
11	0	0	0	0	505	1	
12	0	0	0	0	407	1	
13	0	0	0	0	467	1	
14	0	0	0	0	550	2	
15	0	0	0	0	558	2	
0	0	0	0	0	542	2	
1	0	0	0	0	509	1	
2	0	0	0	0	507	1	
3	0	0	0	0	504	1	
4	0	0	0	0	501	1	
5	0	0	0	0	508	1	
6	0	0	0	0	509	2	
7	0	0	0	0	506	1	
8	0	0	0	0	506	1	
9	0	0	0	0	505	1	
10	0	0	0	0	504	1	
11	0	0	0	0	507	1	
12	0	0	0	0	509	1	
13	0	0	0	0	507	1	
14	0	0	0	0	511	2	
15	0	0	0	0	532	2	
0	0	0	0	0	552	2	
1	0	0	0	0	547	2	
2	0	0	0	0	507	1	
3	0	0	0	0	447	0	
4	0	0	0	0	522	1	
5	0	0	0	0	457	1	
6	0	0	0	0	495	2	
7	0	0	0	0	501	1	
8	0	0	0	0	516	1	
9	0	0	0	0	522	2	
10	0	0	0	0	516	1	
11	0	0	0	0	512	1	
12	0	0	0	0	509	1	
13	0	0	0	0	504	1	
14	0	0	0	0	512	2	
15	0	0	0	0	513	1	
0	0	0	0	0	514	1	
1	0	0	0	0	510	1	
2	0	0	0	0	511	1	
3	0	0	0	0	512	1	
4	0	0	0	0	511	1	
5	0	0	0	0	502	1	
6	0	0	0	0	502	2	
7	0	0	0	0	519	1	
8	0	0	0	0	522	2	
9	0	0	0	0	506	1	
10	0	0	0	0	522	2	
11	0	0	0	0	497	1	
12	0	0	0	0	489	1	
13	0	0	0	0	523	2	
14	0	0	0	0	524	2	
15	0	0	0	0	517	1	
0	0	0	0	0	515	1	
1	0	0	0	0	510	1	
2	0	0	0	0	509	1	
3	0	0	0	0	511	1	
4	0	0	0	0	510	1	
5	0	0	0	0	509	1	
6	0	0	0	0	509	1	
7	0	0	0	0	509	1	
8	0	0	0	0	508	1	
9	0	0	0	0	511	1	
10	0	0	0	0	510	1	
11	0	0	0	0	508	1	
12	0	0	0	0	508	1	
13	0	0	0	0	508	1	
14	0	0	0	0	510	1	
15	0	0	0	0	510	1	
0	0	0	0	0	508	1	
1	0	0	0	0	510	1	
2	0	0	0	0	504	1	
3	0	0	0	0	515	1	
4	0	0	0	0	512	1	
5	0	0	0	0	512	1	
6	0	0	0	0	511	2	
7	0	0	0	0	509	1	
8	0	0	0	0	510	1	
9	0	0	0	0	510	1	
10	0	0	0	0	510	1	
11	0	0	0	0	516	1	
12	0	0	0	0	514	1	
13	0	0	0	0	515	1	
14	0	0	0	0	524	2	
15	0	0	0	0	511	1	
0	0	0	0	0	518	1	
1	0	0	0	0	532	2	
2	0	0	0	0	515	1	
3	0	0	0	0	473	1	
4	0	0	0	0	487	1	
5	0	0	0	0	500	1	
6	0	0	0	0	499	2	
7	0	0	0	0	536	2	
8	0	0	0	0	552	2	
9	0	0	0	0	512	1	
10	0	0	0	0	500	1	
11	0	0	0	0	503	1	
12	0	0	0	0	499	1	
13	0	0	0	0	505	1	
14	0	0	0	0	498	2	
15	0	0	0	0	504	1	
0	0	0	0	0	508	1	
1	0	0	0	0	506	1	
2	0	0	0	0	504	1	
3	0	0	0	0	509	1	
4	0	0	0	0	506	1	
5	0	0	0	0	509	1	
6	0	0	0	0	506	2	
7	0	0	0	0	504	1	
8	0	0	0	0	513	1	
9	0	0	0	0	508	1	
10	0	0	0	0	494	1	
11	0	0	0	0	512	1	
12	0	0	0	0	528	1	
13	0	0	0	0	513	1	
14	0	0	0	0	494	2	
15	0	0	0	0	477	1	
0	0	0	0	0	501	1	
1	0	0	0	0	519	1	
2	0	0	0	0	521	2	
3	0	0	0	0	517	1	
4	0	0	0	0	517	1	
5	0	0	0	0	525	2	
6	0	0	0	0	520	2	
7	0	0	0	0	514	1	
8	0	0	0	0	513	1	
9	0	0	0	0	514	1	
10	0	0	0	0	506	1	
11	0	0	0	0	508	1	
12	0	0	0	0	504	1	
13	0	0	0	0	508	1	
14	0	0	0	0	509	2	
15	0	0	0	0	512	1	
0	0	0	0	0	504	1	
1	0	0	0	0	512	1	
2	0	0	0	0	516	1	
3	0	0	0	0	491	1	
4	0	0	0	0	484	1	
5	0	0	0	0	518	1	
6	0	0	0	0	510	2	
7	0	0	0	0	525	1	
8	0	0	0	0	527	1	
9	0	0	0	0	529	1	
10	0	0	0	0	451	1	
11	0	0	0	0	478	1	
12	0	0	0	0	511	1	
13	0	0	0	0	525	2	
14	0	0	0	0	513	2	
15	0	0	0	0	513	1	
0	0	0	0	0	516	1	
1	0	0	0	0	511	1	
2	0	0	0	0	509	1	
3	0	0	0	0	510	1	
4	0	0	0	0	510	1	
5	0	0	0	0	510	2	
6	0	0	0	0	510	2	
7	0	0	0	0	510	1	
8	0	0	0	0	508	0	
9	0	0	0	0	511	1	
10	0	0	0	0	511	1	
11	0	0	0	0	508	1	
12	0	0	0	0	515	1	
13	0	0	0	0	531	2	
14	0	0	0	0	499	1	
15	0	0	0	0	503	1	
0	0	0	0	0	473	1	
1	0	0	0	0	510	1	
2	0	0	0	0	505	1	
3	0	0	0	0	499	1	
4	0	0	0	0	530	2	
5	0	0	0	0	524	1	
6	0	0	0	0	518	2	
7	0	0	0	0	528	2	
8	0	0	0	0	519	1	
9	0	0	0	0	512	1	
10	0	0	0	0	504	1	
11	0	0	0	0	503	1	
12	0	0	0	0	512	1	
13	0	0	0	0	510	1	
14	0	0	0	0	506	2	
15	0	0	0	0	508	1	
0	0	0	0	0	508	1	
1	0	0	0	0	510	1	
2	0	0	0	0	519	1	
3	0	0	0	0	520	1	
4	0	0	0	0	474	1	
5	0	0	0	0	504	1	
6	0	0	0	0	528	2	
7	0	0	0	0	432	1	
8	0	0	0	0	501	0	
9	0	0	0	0	573	2	
10	0	0	0	0	527	2	
11	0	0	0	0	553	2	
12	0	0	0	0	516	1	
13	0	0	0	0	483	1	
14	0	0	0	0	508	2	
15	0	0	0	0	502	1	
0	0	0	0	0	505	0	
1	0	0	0	0	501	1	
2	0	0	0	0	497	1	
3	0	0	0	0	503	1	
4	0	0	0	0	512	1	
5	0	0	0	0	514	1	
6	0	0	0	0	513	2	
7	0	0	0	0	513	1	
8	0	0	0	0	512	0	
9	0	0	0	0	511	1	
10	0	0	0	0	511	1	
11	0	0	0	0	511	1	
12	0	0	0	0	512	1	
13	0	0	0	0	509	1	
14	0	0	0	0	510	2	
15	0	0	0	0	510	1	
0	0	0	0	0	511	1	
1	0	0	0	0	512	1	
2	0	0	0	0	512	1	
3	0	0	0	0	513	1	
4	0	0	0	0	511	1	
5	0	0	0	0	505	1	
6	0	0	0	0	507	2	
7	0	0	0	0	504	1	
8	0	0	0	0	518	1	
9	0	0	0	0	517	1	
10	0	0	0	0	511	1	
11	0	0	0	0	516	1	
12	0	0	0	0	518	1	
13	0	0	0	0	504	1	
14	0	0	0	0	498	2	
15	0	0	0	0	512	1	
0	0	0	0	0	509	1	
1	0	0	0	0	508	1	
2	0	0	0	0	518	1	
3	0	0	0	0	526	1	
4	0	0	0	0	494	1	
5	0	0	0	0	490	1	
6	0	0	0	0	518	2	
7	0	0	0	0	513	1	
8	0	0	0	0	500	1	
9	0	0	0	0	497	1	
10	0	0	0	0	514	1	
11	0	0	0	0	516	1	
12	0	0	0	0	508	1	
13	0	0	0	0	504	1	
14	0	0	0	0	499	2	
15	0	0	0	0	494	1	
0	0	0	0	0	523	2	
1	0	0	0	0	522	1	
2	0	0	0	0	505	1	
3	0	0	0	0	509	1	
4	0	0	0	0	517	1	
5	0	0	0	0	533	2	
6	0	0	0	0	467	2	
7	0	0	0	0	546	2	
8	0	0	0	0	514	1	
9	0	0	0	0	494	1	
10	0	0	0	0	500	1	
11	0	0	0	0	517	1	
12	0	0	0	0	518	1	
13	0	0	0	0	503	1	
14	0	0	0	0	501	2	
15	0	0	0	0	504	1	
0	0	0	0	0	504	1	
1	0	0	0	0	502	1	
2	0	0	0	0	505	1	
3	0	0	0	0	511	1	
4	0	0	0	0	509	1	
5	0	0	0	0	510	1	
6	0	0	0	0	506	2	
7	0	0	0	0	513	1	
8	0	0	0	0	511	1	
9	0	0	0	0	508	1	
10	0	0	0	0	498	1	
11	0	0	0	0	527	1	
12	0	0	0	0	552	2	
13	0	0	0	0	497	1	
14	0	0	0	0	492	1	
15	0	0	0	0	498	1	
0	0	0	0	0	510	1	
1	0	0	0	0	459	1	
2	0	0	0	0	504	1	
3	0	0	0	0	535	2	
4	0	0	0	0	527	1	
5	0	0	0	0	514	1	
6	0	0	0	0	510	1	
7	0	0	0	0	509	1	
8	0	0	0	0	510	1	
9	0	0	0	0	512	1	
10	0	0	0	0	509	1	
11	0	0	0	0	509	1	
12	0	0	0	0	507	1	
13	0	0	0	0	506	1	
14	0	0	0	0	504	1	
15	0	0	0	0	511	1	
0	0	0	0	0	500	1	
1	0	0	0	0	505	1	
2	0	0	0	0	499	1	
3	0	0	0	0	483	1	
4	0	0	0	0	514	1	
5	0	0	0	0	536	2	
6	0	0	0	0	515	2	
7	0	0	0	0	524	2	
8	0	0	0	0	491	1	
9	0	0	0	0	519	1	
10	0	0	0	0	515	1	
11	0	0	0	0	503	1	
12	0	0	0	0	506	1	
13	0	0	0	0	511	1	
14	0	0	0	0	519	2	
15	0	0	0	0	526	2	
0	0	0	0	0	504	1	
1	0	0	0	0	487	1	
2	0	0	0	0	512	1	
3	0	0	0	0	511	1	
4	0	0	0	0	508	1	
5	0	0	0	0	528	2	
6	0	0	0	0	497	2	
7	0	0	0	0	537	2	
8	0	0	0	0	546	2	
9	0	0	0	0	479	1	
10	0	0	0	0	504	1	
11	0	0	0	0	492	1	
12	0	0	0	0	510	1	
13	0	0	0	0	508	1	
14	0	0	0	0	505	2	
15	0	0	0	0	504	1	
0	0	0	0	0	504	1	
1	0	0	0	0	508	1	
2	0	0	0	0	506	1	
3	0	0	0	0	504	1	
4	0	0	0	0	505	1	
5	0	0	0	0	507	1	
6	0	0	0	0	508	2	
7	0	0	0	0	513	1	
8	0	0	0	0	516	1	
9	0	0	0	0	532	2	
10	0	0	0	0	521	1	
11	0	0	0	0	501	1	
12	0	0	0	0	497	1	
13	0	0	0	0	531	2	
14	0	0	0	0	516	2	
15	0	0	0	0	509	1	
0	0	0	0	0	467	1	
1	0	0	0	0	532	1	
2	0	0	0	0	509	1	
3	0	0	0	0	499	1	
4	0	0	0	0	494	1	
5	0	0	0	0	504	1	
6	0	0	0	0	505	2	
7	0	0	0	0	506	1	
8	0	0	0	0	509	1	
9	0	0	0	0	510	1	
10	0	0	0	0	510	1	
11	0	0	0	0	511	1	
12	0	0	0	0	508	1	
13	0	0	0	0	510	1	
14	0	0	0	0	511	2	
15	0	0	0	0	533	2	
0	0	0	0	0	530	2	
1	0	0	0	0	499	1	
2	0	0	0	0	496	1	
3	0	0	0	0	471	1	
4	0	0	0	0	527	1	
5	0	0	0	0	513	1	
6	0	0	0	0	514	2	
7	0	0	0	0	499	1	
8	0	0	0	0	508	0	
9	0	0	0	0	509	1	
10	0	0	0	0	518	1	
11	0	0	0	0	507	1	
12	0	0	0	0	504	1	
13	0	0	0	0	508	1	
14	0	0	0	0	512	2	
15	0	0	0	0	508	1	
0	0	0	0	0	511	1	
1	0	0	0	0	508	1	
2	0	0	0	0	509	1	
3	0	0	0	0	507	1	
4	0	0	0	0	509	1	
5	0	0	0	0	511	1	
6	0	0	0	0	511	2	
7	0	0	0	0	509	1	
8	0	0	0	0	512	1	
9	0	0	0	0	513	1	
10	0	0	0	0	511	1	
11	0	0	0	0	510	1	
12	0	0	0	0	518	1	
13	0	0	0	0	515	1	
14	0	0	0	0	513	2	
15	0	0	0	0	485	1	
0	0	0	0	0	510	1	
1	0	0	0	0	516	1	
2	0	0	0	0	516	1	
3	0	0	0	0	510	1	
4	0	0	0	0	522	1	
5	0	0	0	0	510	1	
6	0	0	0	0	502	2	
7	0	0	0	0	501	1	
8	0	0	0	0	519	1	
9	0	0	0	0	512	1	
10	0	0	0	0	510	1	
11	0	0	0	0	509	1	
12	0	0	0	0	510	1	
13	0	0	0	0	510	1	
14	0	0	0	0	510	2	
15	0	0	0	0	509	1	
0	0	0	0	0	508	1	
1	0	0	0	0	510	1	
2	0	0	0	0	517	1	
3	0	0	0	0	522	1	
4	0	0	0	0	496	1	
5	0	0	0	0	480	1	
6	0	0	0	0	556	3	
7	0	0	0	0	521	1	
8	0	0	0	0	491	0	
9	0	0	0	0	512	1	
10	0	0	0	0	518	1	
11	0	0	0	0	506	1	
12	0	0	0	0	503	1	
13	0	0	0	0	497	1	
14	0	0	0	0	513	2	
15	0	0	0	0	519	1	
0	0	0	0	0	516	0	
1	0	0	0	0	508	1	
2	0	0	0	0	509	1	
3	0	0	0	0	507	1	
4	0	0	0	0	504	1	
5	0	0	0	0	508	1	
6	0	0	0	0	510	2	
7	0	0	0	0	508	1	
8	0	0	0	0	508	1	
9	0	0	0	0	505	1	
10	0	0	0	0	504	1	
11	0	0	0	0	503	1	
12	0	0	0	0	505	1	
13	0	0	0	0	504	1	
14	0	0	0	0	531	2	
15	0	0	0	0	544	2	
0	0	0	0	0	543	2	
1	0	0	0	0	486	1	
2	0	0	0	0	456	1	
3	0	0	0	0	495	1	
4	0	0	0	0	537	2	
5	0	0	0	0	515	1	
6	0	0	0	0	503	2	
7	0	0	0	0	506	1	
8	0	0	0	0	514	1	
9	0	0	0	0	508	1	
10	0	0	0	0	509	1	
11	0	0	0	0	515	1	
12	0	0	0	0	519	1	
13	0	0	0	0	523	2	
14	0	0	0	0	523	2	
15	0	0	0	0	522	1	
0	0	0	0	0	521	1	
1	0	0	0	0	519	1	
2	0	0	0	0	515	1	
3	0	0	0	0	512	1	
4	0	0	0	0	512	1	
5	0	0	0	0	510	1	
6	0	0	0	0	504	2	
7	0	0	0	0	510	1	
8	0	0	0	0	515	2	
9	0	0	0	0	533	2	
10	0	0	0	0	511	1	
11	0	0	0	0	507	1	
12	0	0	0	0	501	1	
13	0	0	0	0	460	1	
14	0	0	0	0	435	1	
15	0	0	0	0	519	1	
0	0	0	0	0	551	2	
1	0	0	0	0	535	2	
2	0	0	0	0	551	2	
3	0	0	0	0	528	1	
4	0	0	0	0	488	1	
5	0	0	0	0	499	1	
6	0	0	0	0	484	2	
7	0	0	0	0	502	1	
8	0	0	0	0	499	1	
9	0	0	0	0	501	1	
10	0	0	0	0	502	1	
11	0	0	0	0	505	1	
12	0	0	0	0	506	1	
13	0	0	0	0	510	1	
14	0	0	0	0	510	2	
15	0	0	0	0	507	1	
0	0	0	0	0	504	1	
1	0	0	0	0	506	1	
2	0	0	0	0	512	1	
3	0	0	0	0	492	1	
4	0	0	0	0	504	1	
5	0	0	0	0	530	2	
6	0	0	0	0	502	1	
7	0	0	0	0	467	1	
8	0	0	0	0	518	1	
9	0	0	0	0	575	2	
10	0	0	0	0	517	1	
11	0	0	0	0	497	1	
12	0	0	0	0	486	1	
13	0	0	0	0	505	1	
14	0	0	0	0	520	1	
15	0	0	0	0	512	1	
0	0	0	0	0	509	1	
1	0	0	0	0	508	1	
2	0	0	0	0	508	1	
3	0	0	0	0	504	1	
4	0	0	0	0	507	1	
5	0	0	0	0	509	1	
6	0	0	0	0	508	1	
7	0	0	0	0	508	1	
8	0	0	0	0	508	1	
9	0	0	0	0	507	1	
10	0	0	0	0	506	1	
11	0	0	0	0	507	1	
12	0	0	0	0	506	1	
13	0	0	0	0	503	1	
14	0	0	0	0	508	2	
15	0	0	0	0	511	1	
0	0	0	0	0	511	1	
1	0	0	0	0	512	1	
2	0	0	0	0	513	1	
3	0	0	0	0	523	1	
4	0	0	0	0	503	1	
5	0	0	0	0	473	1	
6	0	0	0	0	488	2	
7	0	0	0	0	511	1	
8	0	0	0	0	547	2	
9	0	0	0	0	518	2	
10	0	0	0	0	508	1	
11	0	0	0	0	519	1	
12	0	0	0	0	521	1	
13	0	0	0	0	505	1	
14	0	0	0	0	475	2	
15	0	0	0	0	508	1	
0	0	0	0	0	520	2	
1	0	0	0	0	521	2	
2	0	0	0	0	515	1	
3	0	0	0	0	483	1	
4	0	0	0	0	509	1	
5	0	0	0	0	510	1	
6	0	0	0	0	520	2	
7	0	0	0	0	509	1	
8	0	0	0	0	494	1	
9	0	0	0	0	512	1	
10	0	0	0	0	529	1	
11	0	0	0	0	486	1	
12	0	0	0	0	502	1	
13	0	0	0	0	499	1	
14	0	0	0	0	520	2	
15	0	0	0	0	524	2	
0	0	0	0	0	505	1	
1	0	0	0	0	505	1	
2	0	0	0	0	490	1	
3	0	0	0	0	536	1	
4	0	0	0	0	515	1	
5	0	0	0	0	521	2	
6	0	0	0	0	520	2	
7	0	0	0	0	512	1	
8	0	0	0	0	504	1	
9	0	0	0	0	502	1	
10	0	0	0	0	507	1	
11	0	0	0	0	507	1	
12	0	0	0	0	507	1	
13	0	0	0	0	510	1	
14	0	0	0	0	509	2	
15	0	0	0	0	510	1	
0	0	0	0	0	505	1	
1	0	0	0	0	529	1	
2	0	0	0	0	517	1	
3	0	0	0	0	478	1	
4	0	0	0	0	511	1	
5	0	0	0	0	481	1	
6	0	0	0	0	515	2	
7	0	0	0	0	528	2	
8	0	0	0	0	518	1	
9	0	0	0	0	505	1	
10	0	0	0	0	500	1	
11	0	0	0	0	515	1	
12	0	0	0	0	505	1	
13	0	0	0	0	508	1	
14	0	0	0	0	515	2	
15	0	0	0	0	503	1	
0	0	0	0	0	505	0	
1	0	0	0	0	504	1	
2	0	0	0	0	524	1	
3	0	0	0	0	529	2	
4	0	0	0	0	507	1	
5	0	0	0	0	489	1	
6	0	0	0	0	523	2	
7	0	0	0	0	522	1	
8	0	0	0	0	516	1	
9	0	0	0	0	484	1	
10	0	0	0	0	524	2	
11	0	0	0	0	553	2	
12	0	0	0	0	491	1	
13	0	0	0	0	428	1	
14	0	0	0	0	485	2	
15	0	0	0	0	510	1	
0	0	0	0	0	499	0	
1	0	0	0	0	520	2	
2	0	0	0	0	542	2	
3	0	0	0	0	518	1	
4	0	0	0	0	508	1	
5	0	0	0	0	504	1	
6	0	0	0	0	511	2	
7	0	0	0	0	532	2	
8	0	0	0	0	508	1	
9	0	0	0	0	494	1	
10	0	0	0	0	509	1	
11	0	0	0	0	508	1	
12	0	0	0	0	518	2	
13	0	0	0	0	505	1	
14	0	0	0	0	485	1	
15	0	0	0	0	521	2	
0	0	0	0	0	531	2	
1	0	0	0	0	504	1	
2	0	0	0	0	499	1	
3	0	0	0	0	489	1	
4	0	0	0	0	508	1	
5	0	0	0	0	528	2	
6	0	0	0	0	523	2	
7	0	0	0	0	511	1	
8	0	0	0	0	508	1	
9	0	0	0	0	511	1	
10	0	0	0	0	511	1	
11	0	0	0	0	506	1	
12	0	0	0	0	508	1	
13	0	0	0	0	509	2	
14	0	0	0	0	509	2	
15	0	0	0	0	511	1	
0	0	0	0	0	509	0	
1	0	0	0	0	504	1	
2	0	0	0	0	507	1	
3	0	0	0	0	508	1	
4	0	0	0	0	513	1	
5	0	0	0	0	519	1	
6	0	0	0	0	515	2	
7	0	0	0	0	513	1	
8	0	0	0	0	492	0	
9	0	0	0	0	508	1	
10	0	0	0	0	504	1	
11	0	0	0	0	513	1	
12	0	0	0	0	527	2	
13	0	0	0	0	519	2	
14	0	0	0	0	504	2	
15	0	0	0	0	504	1	
0	0	0	0	0	513	1	
1	0	0	0	0	523	1	
2	0	0	0	0	476	1	
3	0	0	0	0	519	1	
4	0	0	0	0	552	2	
5	0	0	0	0	511	1	
6	0	0	0	0	433	1	
7	0	0	0	0	504	1	
8	0	0	0	0	528	2	
9	0	0	0	0	519	1	
10	0	0	0	0	514	1	
11	0	0	0	0	512	1	
12	0	0	0	0	503	1	
13	0	0	0	0	505	1	
14	0	0	0	0	507	2	
15	0	0	0	0	520	2	
0	0	0	0	0	515	1	
1	0	0	0	0	496	1	
2	0	0	0	0	502	1	
3	0	0	0	0	508	1	
4	0	0	0	0	507	1	
5	0	0	0	0	505	1	
6	0	0	0	0	520	2	
7	0	0	0	0	513	1	
8	0	0	0	0	510	1	
9	0	0	0	0	497	1	
10	0	0	0	0	529	2	
11	0	0	0	0	536	1	
12	0	0	0	0	505	1	
13	0	0	0	0	479	1	
14	0	0	0	0	534	2	
15	0	0	0	0	517	1	
0	0	0	0	0	506	1	
1	0	0	0	0	496	1	
2	0	0	0	0	515	1	
3	0	0	0	0	508	1	
4	0	0	0	0	489	1	
5	0	0	0	0	505	1	
6	0	0	0	0	504	2	
7	0	0	0	0	508	1	
8	0	0	0	0	501	1	
9	0	0	0	0	517	1	
10	0	0	0	0	516	1	
11	0	0	0	0	513	1	
12	0	0	0	0	515	1	
13	0	0	0	0	511	1	
14	0	0	0	0	509	2	
15	0	0	0	0	508	1	
0	0	0	0	0	512	1	
1	0	0	0	0	517	1	
2	0	0	0	0	513	1	
3	0	0	0	0	496	1	
4	0	0	0	0	488	1	
5	0	0	0	0	489	1	
6	0	0	0	0	517	2	
7	0	0	0	0	539	2	
8	0	0	0	0	530	2	
9	0	0	0	0	514	1	
10	0	0	0	0	512	1	
11	0	0	0	0	487	1	
12	0	0	0	0	510	1	
13	0	0	0	0	511	1	
14	0	0	0	0	507	2	
15	0	0	0	0	508	1	
0	0	0	0	0	511	1	
1	0	0	0	0	508	1	
2	0	0	0	0	510	1	
3	0	0	0	0	514	1	
4	0	0	0	0	514	1	
5	0	0	0	0	513	1	
6	0	0	0	0	516	1	
7	0	0	0	0	494	1	
8	0	0	0	0	502	1	
9	0	0	0	0	513	1	
10	0	0	0	0	512	1	
11	0	0	0	0	507	1	
12	0	0	0	0	505	1	
13	0	0	0	0	505	1	
14	0	0	0	0	516	1	
15	0	0	0	0	505	1	
0	0	0	0	0	529	2	
1	0	0	0	0	536	2	
2	0	0	0	0	495	1	
3	0	0	0	0	489	1	
4	0	0	0	0	504	1	
5	0	0	0	0	510	1	
6	0	0	0	0	501	2	
7	0	0	0	0	509	1	
8	0	0	0	0	517	1	
9	0	0	0	0	518	1	
10	0	0	0	0	519	1	
11	0	0	0	0	506	1	
12	0	0	0	0	499	1	
13	0	0	0	0	510	1	
14	0	0	0	0	508	2	
15	0	0	0	0	506	1	
0	0	0	0	0	517	1	
1	0	0	0	0	516	1	
2	0	0	0	0	511	1	
3	0	0	0	0	502	1	
4	0	0	0	0	505	1	
5	0	0	0	0	518	1	
6	0	0	0	0	492	2	
7	0	0	0	0	508	1	
8	0	0	0	0	483	1	
9	0	0	0	0	552	2	
10	0	0	0	0	538	2	
11	0	0	0	0	484	1	
12	0	0	0	0	498	1	
13	0	0	0	0	516	1	
14	0	0	0	0	519	2	
15	0	0	0	0	513	1	
0	0	0	0	0	518	1	
1	0	0	0	0	513	1	
2	0	0	0	0	509	1	
3	0	0	0	0	505	1	
4	0	0	0	0	514	1	
5	0	0	0	0	527	2	
6	0	0	0	0	524	2	
7	0	0	0	0	458	1	
8	0	0	0	0	505	1	
9	0	0	0	0	505	1	
10	0	0	0	0	499	1	
11	0	0	0	0	505	1	
12	0	0	0	0	513	1	
13	0	0	0	0	514	1	
14	0	0	0	0	516	2	
15	0	0	0	0	511	1	
0	0	0	0	0	513	1	
1	0	0	0	0	504	1	
2	0	0	0	0	511	1	
3	0	0	0	0	508	1	
4	0	0	0	0	485	1	
5	0	0	0	0	499	1	
6	0	0	0	0	512	2	
7	0	0	0	0	504	1	
8	0	0	0	0	518	1	
9	0	0	0	0	523	1	
10	0	0	0	0	518	1	
11	0	0	0	0	516	1	
12	0	0	0	0	509	1	
13	0	0	0	0	514	1	
14	0	0	0	0	514	2	
15	0	0	0	0	511	1	
0	0	0	0	0	504	1	
1	0	0	0	0	511	1	
2	0	0	0	0	520	1	
3	0	0	0	0	513	1	
4	0	0	0	0	497	1	
5	0	0	0	0	503	1	
6	0	0	0	0	504	2	
7	0	0	0	0	509	1	
8	0	0	0	0	510	0	
9	0	0	0	0	520	1	
10	0	0	0	0	524	1	
11	0	0	0	0	504	1	
12	0	0	0	0	483	1	
13	0	0	0	0	511	1	
14	0	0	0	0	506	2	
15	0	0	0	0	512	1	
0	0	0	0	0	510	0	
1	0	0	0	0	505	1	
2	0	0	0	0	519	1	
3	0	0	0	0	511	1	
4	0	0	0	0	506	1	
5	0	0	0	0	520	2	
6	0	0	0	0	504	2	
7	0	0	0	0	498	1	
8	0	0	0	0	511	0	
9	0	0	0	0	511	1	
10	0	0	0	0	508	1	
11	0	0	0	0	509	1	
12	0	0	0	0	512	1	
13	0	0	0	0	515	1	
14	0	0	0	0	508	2	
15	0	0	0	0	508	1	
0	0	0	0	0	514	1	
1	0	0	0	0	523	2	
2	0	0	0	0	526	2	
3	0	0	0	0	516	1	
4	0	0	0	0	489	1	
5	0	0	0	0	496	1	
6	0	0	0	0	512	2	
7	0	0	0	0	483	1	
8	0	0	0	0	495	1	
9	0	0	0	0	523	2	
10	0	0	0	0	505	1	
11	0	0	0	0	507	1	
12	0	0	0	0	519	1	
13	0	0	0	0	513	2	
14	0	0	0	0	517	2	
15	0	0	0	0	523	1	
0	0	0	0	0	536	2	
1	0	0	0	0	512	1	
2	0	0	0	0	478	1	
3	0	0	0	0	505	1	
4	0	0	0	0	501	1	
5	0	0	0	0	504	1	
6	0	0	0	0	507	2	
7	0	0	0	0	505	1	
8	0	0	0	0	508	0	
9	0	0	0	0	509	1	
10	0	0	0	0	509	1	
11	0	0	0	0	509	1	
12	0	0	0	0	516	1	
13	0	0	0	0	521	2	
14	0	0	0	0	511	2	
15	0	0	0	0	492	1	
0	0	0	0	0	508	0	
1	0	0	0	0	493	1	
2	0	0	0	0	524	2	
3	0	0	0	0	500	1	
4	0	0	0	0	506	1	
5	0	0	0	0	513	1	
6	0	0	0	0	513	2	
7	0	0	0	0	509	1	
8	0	0	0	0	511	1	
9	0	0	0	0	510	1	
10	0	0	0	0	512	1	
11	0	0	0	0	510	1	
12	0	0	0	0	507	1	
13	0	0	0	0	511	1	
14	0	0	0	0	513	2	
15	0	0	0	0	513	1	
0	0	0	0	0	513	1	
1	0	0	0	0	510	1	
2	0	0	0	0	510	1	
3	0	0	0	0	510	1	
4	0	0	0	0	511	1	
5	0	0	0	0	505	1	
6	0	0	0	0	510	2	
7	0	0	0	0	504	1	
8	0	0	0	0	509	1	
9	0	0	0	0	504	1	
10	0	0	0	0	512	1	
11	0	0	0	0	505	1	
12	0	0	0	0	510	1	
13	0	0	0	0	511	1	
14	0	0	0	0	513	2	
15	0	0	0	0	510	2	
0	0	0	0	0	507	1	
1	0	0	0	0	508	1	
2	0	0	0	0	512	1	
3	0	0	0	0	512	1	
4	0	0	0	0	509	1	
5	0	0	0	0	506	1	
6	0	0	0	0	512	2	
7	0	0	0	0	511	1	
8	0	0	0	0	505	1	
9	0	0	0	0	504	1	
10	0	0	0	0	517	1	
11	0	0	0	0	516	1	
12	0	0	0	0	497	1	
13	0	0	0	0	494	1	
14	0	0	0	0	504	2	
15	0	0	0	0	518	1	
0	0	0	0	0	519	1	
1	0	0	0	0	518	1	
2	0	0	0	0	507	1	
3	0	0	0	0	504	1	
4	0	0	0	0	511	1	
5	0	0	0	0	508	1	
6	0	0	0	0	511	2	
7	0	0	0	0	515	1	
8	0	0	0	0	515	1	
9	0	0	0	0	515	1	
10	0	0	0	0	505	1	
11	0	0	0	0	502	1	
12	0	0	0	0	520	1	
13	0	0	0	0	485	1	
14	0	0	0	0	477	2	
15	0	0	0	0	511	1	
0	0	0	0	0	516	1	
1	0	0	0	0	526	2	
2	0	0	0	0	524	2	
3	0	0	0	0	520	2	
4	0	0	0	0	511	1	
5	0	0	0	0	509	1	
6	0	0	0	0	507	2	
7	0	0	0	0	508	1	
8	0	0	0	0	505	1	
9	0	0	0	0	503	1	
10	0	0	0	0	506	1	
11	0	0	0	0	508	1	
12	0	0	0	0	505	1	
13	0	0	0	0	506	1	
14	0	0	0	0	506	1	
15	0	0	0	0	510	1	
0	0	0	0	0	505	1	
1	0	0	0	0	507	1	
2	0	0	0	0	520	1	
3	0	0	0	0	530	2	
4	0	0	0	0	504	1	
5	0	0	0	0	490	1	
6	0	0	0	0	519	1	
7	0	0	0	0	518	1	
8	0	0	0	0	499	1	
9	0	0	0	0	483	1	
10	0	0	0	0	503	1	
11	0	0	0	0	533	2	
12	0	0	0	0	524	1	
13	0	0	0	0	483	1	
14	0	0	0	0	503	1	
15	0	0	0	0	530	2	
0	0	0	0	0	491	1	
1	0	0	0	0	495	1	
2	0	0	0	0	526	1	
3	0	0	0	0	514	1	
4	0	0	0	0	511	1	
5	0	0	0	0	510	1	
6	0	0	0	0	511	2	
7	0	0	0	0	511	1	
8	0	0	0	0	507	1	
9	0	0	0	0	508	1	
10	0	0	0	0	510	1	
11	0	0	0	0	510	1	
12	0	0	0	0	506	1	
13	0	0	0	0	508	1	
14	0	0	0	0	508	2	
15	0	0	0	0	508	1	
0	0	0	0	0	509	1	
1	0	0	0	0	512	1	
2	0	0	0	0	512	1	
3	0	0	0	0	511	1	
4	0	0	0	0	510	1	
5	0	0	0	0	511	1	
6	0	0	0	0	510	2	
7	0	0	0	0	511	1	
8	0	0	0	0	512	1	
9	0	0	0	0	501	1	
10	0	0	0	0	511	1	
11	0	0	0	0	517	1	
12	0	0	0	0	513	1	
13	0	0	0	0	508	1	
14	0	0	0	0	500	2	
15	0	0	0	0	501	1	
0	0	0	0	0	512	1	
1	0	0	0	0	513	1	
2	0	0	0	0	510	1	
3	0	0	0	0	511	1	
4	0	0	0	0	512	1	
5	0	0	0	0	512	1	
6	0	0	0	0	512	2	
7	0	0	0	0	519	1	
8	0	0	0	0	520	1	
9	0	0	0	0	486	1	
10	0	0	0	0	509	1	
11	0	0	0	0	503	1	
12	0	0	0	0	505	1	
13	0	0	0	0	515	2	
14	0	0	0	0	511	2	
15	0	0	0	0	504	1	
0	0	0	0	0	512	1	
1	0	0	0	0	512	1	
2	0	0	0	0	518	1	
3	0	0	0	0	513	1	
4	0	0	0	0	511	1	
5	0	0	0	0	511	1	
6	0	0	0	0	511	2	
7	0	0	0	0	510	1	
8	0	0	0	0	509	1	
9	0	0	0	0	509	1	
10	0	0	0	0	508	1	
11	0	0	0	0	508	1	
12	0	0	0	0	508	1	
13	0	0	0	0	507	1	
14	0	0	0	0	507	2	
15	0	0	0	0	505	1	
0	0	0	0	0	508	1	
1	0	0	0	0	510	1	
2	0	0	0	0	508	1	
3	0	0	0	0	507	1	
4	0	0	0	0	508	1	
5	0	0	0	0	512	1	
6	0	0	0	0	513	2	
7	0	0	0	0	514	2	
8	0	0	0	0	510	1	
9	0	0	0	0	499	1	
10	0	0	0	0	509	1	
11	0	0	0	0	511	1	
12	0	0	0	0	507	1	
13	0	0	0	0	508	1	
14	0	0	0	0	507	2	
15	0	0	0	0	509	1	
0	0	0	0	0	507	1	
1	0	0	0	0	507	1	
2	0	0	0	0	512	1	
3	0	0	0	0	508	1	
4	0	0	0	0	510	1	
5	0	0	0	0	512	1	
6	0	0	0	0	511	2	
7	0	0	0	0	510	1	
8	0	0	0	0	507	1	
9	0	0	0	0	511	1	
10	0	0	0	0	512	1	
11	0	0	0	0	516	1	
12	0	0	0	0	523	2	
13	0	0	0	0	488	1	
14	0	0	0	0	480	1	
15	0	0	0	0	510	1	
0	0	0	0	0	512	1	
1	0	0	0	0	509	1	
2	0	0	0	0	511	1	
3	0	0	0	0	508	1	
4	0	0	0	0	510	1	
5	0	0	0	0	511	1	
6	0	0	0	0	512	2	
7	0	0	0	0	492	1	
8	0	0	0	0	511	1	
9	0	0	0	0	509	1	
10	0	0	0	0	507	1	
11	0	0	0	0	501	1	
12	0	0	0	0	499	1	
13	0	0	0	0	502	1	
14	0	0	0	0	499	2	
15	0	0	0	0	499	1	
0	0	0	0	0	494	0	
1	0	0	0	0	507	1	
2	0	0	0	0	505	1	
3	0	0	0	0	505	1	
4	0	0	0	0	508	1	
5	0	0	0	0	508	1	
6	0	0	0	0	512	2	
7	0	0	0	0	511	1	
8	0	0	0	0	518	1	
9	0	0	0	0	514	2	
10	0	0	0	0	507	1	
11	0	0	0	0	504	1	
12	0	0	0	0	517	1	
13	0	0	0	0	518	1	
14	0	0	0	0	516	2	
15	0	0	0	0	527	1	
0	0	0	0	0	491	0	
1	0	0	0	0	496	1	
2	0	0	0	0	530	2	
3	0	0	0	0	511	1	
4	0	0	0	0	512	1	
5	0	0	0	0	519	1	
6	0	0	0	0	513	2	
7	0	0	0	0	513	1	
8	0	0	0	0	510	1	
9	0	0	0	0	514	1	
10	0	0	0	0	518	1	
11	0	0	0	0	513	1	
12	0	0	0	0	513	1	
13	0	0	0	0	512	1	
14	0	0	0	0	505	2	
15	0	0	0	0	510	1	
0	0	0	0	0	509	1	
1	0	0	0	0	510	1	
2	0	0	0	0	509	1	
3	0	0	0	0	508	1	
4	0	0	0	0	507	1	
5	0	0	0	0	508	1	
6	0	0	0	0	516	2	
7	0	0	0	0	519	1	
8	0	0	0	0	515	1	
9	0	0	0	0	500	1	
10	0	0	0	0	506	1	
11	0	0	0	0	507	1	
12	0	0	0	0	512	1	
13	0	0	0	0	512	1	
14	0	0	0	0	513	2	
15	0	0	0	0	515	1	
0	0	0	0	0	512	1	
1	0	0	0	0	506	2	
2	0	0	0	0	514	1	
3	0	0	0	0	507	1	
4	0	0	0	0	512	1	
5	0	0	0	0	515	1	
6	0	0	0	0	511	2	
7	0	0	0	0	510	1	
8	0	0	0	0	511	1	
9	0	0	0	0	510	1	
10	0	0	0	0	511	1	
11	0	0	0	0	511	1	
12	0	0	0	0	511	1	
13	0	0	0	0	511	1	
14	0	0	0	0	509	2	
15	0	0	0	0	511	1	
0	0	0	0	0	510	2	
1	0	0	0	0	506	1	
2	0	0	0	0	508	1	
3	0	0	0	0	506	1	
4	0	0	0	0	508	1	
5	0	0	0	0	507	2	
6	0	0	0	0	509	2	
7	0	0	0	0	506	1	
8	0	0	0	0	514	1	
9	0	0	0	0	515	1	
10	0	0	0	0	512	1	
11	0	0	0	0	514	1	
12	0	0	0	0	512	1	
13	0	0	0	0	507	1	
14	0	0	0	0	508	2	
15	0	0	0	0	508	1	
0	0	0	0	0	510	1	
1	0	0	0	0	510	1	
2	0	0	0	0	508	1	
3	0	0	0	0	506	1	
4	0	0	0	0	507	1	
5	0	0	0	0	507	1	
6	0	0	0	0	507	1	
7	0	0	0	0	509	1	
8	0	0	0	0	511	1	
9	0	0	0	0	510	1	
10	0	0	0	0	512	1	
11	0	0	0	0	509	1	
12	0	0	0	0	510	1	
13	0	0	0	0	511	1	
14	0	0	0	0	510	1	
15	0	0	0	0	513	1	
0	0	0	0	0	511	1	
1	0	0	0	0	503	1	
2	0	0	0	0	503	1	
3	0	0	0	0	508	1	
4	0	0	0	0	506	1	
5	0	0	0	0	506	1	
6	0	0	0	0	510	1	
7	0	0	0	0	515	1	
8	0	0	0	0	511	1	
9	0	0	0	0	493	1	
10	0	0	0	0	498	1	
11	0	0	0	0	521	2	
12	0	0	0	0	524	1	
13	0	0	0	0	515	1	
14	0	0	0	0	510	2	
15	0	0	0	0	515	1	
0	0	0	0	0	500	1	
1	0	0	0	0	507	1	
2	0	0	0	0	500	1	
3	0	0	0	0	505	1	
4	0	0	0	0	509	1	
5	0	0	0	0	505	1	
6	0	0	0	0	510	2	
7	0	0	0	0	511	1	
8	0	0	0	0	512	1	
9	0	0	0	0	500	1	
10	0	0	0	0	497	1	
11	0	0	0	0	511	1	
12	0	0	0	0	514	1	
13	0	0	0	0	515	1	
14	0	0	0	0	512	2	
15	0	0	0	0	513	1	
0	0	0	0	0	513	1	
1	0	0	0	0	510	1	
2	0	0	0	0	504	1	
3	0	0	0	0	507	1	
4	0	0	0	0	512	1	
5	0	0	0	0	514	1	
6	0	0	0	0	508	2	
7	0	0	0	0	501	1	
8	0	0	0	0	499	1	
9	0	0	0	0	507	1	
10	0	0	0	0	510	1	
11	0	0	0	0	513	1	
12	0	0	0	0	513	1	
13	0	0	0	0	513	1	
14	0	0	0	0	514	2	
15	0	0	0	0	511	1	
0	0	0	0	0	511	1	
1	0	0	0	0	511	1	
2	0	0	0	0	509	1	
3	0	0	0	0	510	1	
4	0	0	0	0	505	1	
5	0	0	0	0	502	1	
6	0	0	0	0	515	2	
7	0	0	0	0	512	1	
8	0	0	0	0	506	1	
9	0	0	0	0	511	1	
10	0	0	0	0	504	1	
11	0	0	0	0	513	1	
12	0	0	0	0	507	1	
13	0	0	0	0	511	1	
14	0	0	0	0	516	2	
15	0	0	0	0	511	1	
0	0	0	0	0	508	1	
1	0	0	0	0	512	1	
2	0	0	0	0	512	1	
3	0	0	0	0	512	1	
4	0	0	0	0	509	1	
5	0	0	0	0	502	1	
6	0	0	0	0	512	2	
7	0	0	0	0	511	1	
8	0	0	0	0	510	1	
9	0	0	0	0	508	1	
10	0	0	0	0	508	1	
11	0	0	0	0	510	1	
12	0	0	0	0	511	1	
13	0	0	0	0	516	1	
14	0	0	0	0	516	2	
15	0	0	0	0	509	1	
0	0	0	0	0	509	0	
1	0	0	0	0	510	1	
2	0	0	0	0	511	1	
3	0	0	0	0	511	1	
4	0	0	0	0	510	1	
5	0	0	0	0	510	1	
6	0	0	0	0	508	2	
7	0	0	0	0	508	1	
8	0	0	0	0	508	1	
9	0	0	0	0	508	2	
10	0	0	0	0	508	1	
11	0	0	0	0	508	1	
12	0	0	0	0	508	1	
13	0	0	0	0	508	1	
14	0	0	0	0	508	2	
15	0	0	0	0	511	1	
0	0	0	0	0	511	0	
1	0	0	0	0	511	1	
2	0	0	0	0	510	1	
3	0	0	0	0	511	1	
4	0	0	0	0	511	1	
5	0	0	0	0	509	1	
6	0	0	0	0	511	2	
7	0	0	0	0	509	1	
8	0	0	0	0	508	1	
9	0	0	0	0	509	1	
10	0	0	0	0	510	1	
11	0	0	0	0	511	1	
12	0	0	0	0	512	1	
13	0	0	0	0	511	1	
14	0	0	0	0	512	2	
15	0	0	0	0	511	1	
0	0	0	0	0	511	1	
1	0	0	0	0	510	1	
2	0	0	0	0	508	1	
3	0	0	0	0	509	1	
4	0	0	0	0	510	1	
5	0	0	0	0	509	1	
6	0	0	0	0	507	2	
7	0	0	0	0	509	1	
8	0	0	0	0	508	0	
9	0	0	0	0	506	1	
10	0	0	0	0	507	1	
11	0	0	0	0	505	1	
12	0	0	0	0	507	1	
13	0	0	0	0	508	1	
14	0	0	0	0	508	2	
15	0	0	0	0	512	1	
0	0	0	0	0	512	0	
1	0	0	0	0	511	1	
2	0	0	0	0	508	1	
3	0	0	0	0	509	1	
4	0	0	0	0	510	1	
5	0	0	0	0	507	1	
6	0	0	0	0	507	2	
7	0	0	0	0	505	1	
8	0	0	0	0	507	0	
9	0	0	0	0	504	1	
10	0	0	0	0	507	1	
11	0	0	0	0	504	1	
12	0	0	0	0	508	1	
13	0	0	0	0	507	1	
14	0	0	0	0	504	2	
15	0	0	0	0	506	1	
0	0	0	0	0	507	1	
1	0	0	0	0	506	1	
2	0	0	0	0	511	1	
3	0	0	0	0	528	2	
4	0	0	0	0	512	1	
5	0	0	0	0	483	1	
6	0	0	0	0	504	2	
7	0	0	0	0	518	1	
8	0	0	0	0	510	2	
9	0	0	0	0	508	1	
10	0	0	0	0	509	1	
11	0	0	0	0	507	1	
12	0	0	0	0	507	1	
13	0	0	0	0	508	1	
14	0	0	0	0	508	2	
15	0	0	0	0	510	1	
0	0	0	0	0	509	1	
1	0	0	0	0	511	1	
2	0	0	0	0	510	1	
3	0	0	0	0	512	1	
4	0	0	0	0	513	1	
5	0	0	0	0	512	1	
6	0	0	0	0	514	2	
7	0	0	0	0	510	1	
8	0	0	0	0	505	1	
9	0	0	0	0	508	1	
10	0	0	0	0	507	1	
11	0	0	0	0	508	1	
12	0	0	0	0	505	1	
13	0	0	0	0	508	1	
14	0	0	0	0	511	2	
15	0	0	0	0	512	1	
0	0	0	0	0	512	1	
1	0	0	0	0	512	1	
2	0	0	0	0	513	1	
3	0	0	0	0	513	1	
4	0	0	0	0	512	1	
5	0	0	0	0	512	1	
6	0	0	0	0	511	2	
7	0	0	0	0	510	1	
8	0	0	0	0	511	1	
9	0	0	0	0	511	1	
10	0	0	0	0	510	1	
11	0	0	0	0	511	1	
12	0	0	0	0	508	1	
13	0	0	0	0	509	1	
14	0	0	0	0	509	2	
15	0	0	0	0	511	1	
0	0	0	0	0	511	1	
1	0	0	0	0	512	1	
2	0	0	0	0	511	1	
3	0	0	0	0	511	1	
4	0	0	0	0	511	1	
5	0	0	0	0	513	1	
6	0	0	0	0	511	2	
7	0	0	0	0	511	1	
8	0	0	0	0	507	1	
9	0	0	0	0	510	1	
10	0	0	0	0	508	1	
11	0	0	0	0	506	1	
12	0	0	0	0	504	1	
13	0	0	0	0	505	1	
14	0	0	0	0	507	2	
15	0	0	0	0	508	1	
0	0	0	0	0	508	1	
1	0	0	0	0	508	1	
2	0	0	0	0	510	1	
3	0	0	0	0	513	1	
4	0	0	0	0	511	1	
5	0	0	0	0	510	1	
6	0	0	0	0	512	1	
7	0	0	0	0	511	1	
8	0	0	0	0	510	1	
9	0	0	0	0	508	1	
10	0	0	0	0	508	1	
11	0	0	0	0	509	1	
12	0	0	0	0	508	1	
13	0	0	0	0	509	1	
14	0	0	0	0	509	1	
15	0	0	0	0	510	1	
0	0	0	0	0	510	1	
1	0	0	0	0	511	1	
2	0	0	0	0	510	1	
3	0	0	0	0	511	1	
4	0	0	0	0	511	1	
5	0	0	0	0	510	1	
6	0	0	0	0	509	2	
7	0	0	0	0	508	1	
8	0	0	0	0	510	1	
9	0	0	0	0	508	1	
10	0	0	0	0	508	1	
11	0	0	0	0	508	1	
12	0	0	0	0	508	1	
13	0	0	0	0	508	1	
14	0	0	0	0	505	2	
15	0	0	0	0	507	1	
0	0	0	0	0	510	1	
1	0	0	0	0	510	1	
2	0	0	0	0	509	1	
3	0	0	0	0	512	1	
4	0	0	0	0	510	1	
5	0	0	0	0	510	1	
6	0	0	0	0	513	2	
7	0	0	0	0	514	1	
8	0	0	0	0	512	1	
9	0	0	0	0	511	1	
10	0	0	0	0	511	1	
11	0	0	0	0	511	1	
12	0	0	0	0	509	1	
13	0	0	0	0	508	1	
14	0	0	0	0	507	2	
15	0	0	0	0	508	1	
0	0	0	0	0	508	1	
1	0	0	0	0	510	1	
2	0	0	0	0	508	1	
3	0	0	0	0	510	1	
4	0	0	0	0	508	1	
5	0	0	0	0	508	1	
6	0	0	0	0	509	2	
7	0	0	0	0	508	1	
8	0	0	0	0	508	1	
9	0	0	0	0	508	1	
10	0	0	0	0	506	1	
11	0	0	0	0	505	1	
12	0	0	0	0	505	1	
13	0	0	0	0	507	1	
14	0	0	0	0	508	2	
15	0	0	0	0	507	1	
0	0	0	0	0	508	1	
1	0	0	0	0	507	1	
2	0	0	0	0	508	1	
3	0	0	0	0	508	1	
4	0	0	0	0	508	1	
5	0	0	0	0	508	1	
6	0	0	0	0	511	2	
7	0	0	0	0	511	1	
8	0	0	0	0	511	1	
9	0	0	0	0	511	1	
10	0	0	0	0	511	1	
11	0	0	0	0	510	1	
12	0	0	0	0	508	1	
13	0	0	0	0	508	1	
14	0	0	0	0	507	2	
15	0	0	0	0	508	1	
0	0	0	0	0	507	1	
1	0	0	0	0	505	1	
2	0	0	0	0	505	1	
3	0	0	0	0	508	1	
4	0	0	0	0	510	1	
5	0	0	0	0	511	1	
6	0	0	0	0	512	2	
7	0	0	0	0	512	1	
8	0	0	0	0	513	1	
9	0	0	0	0	511	1	
10	0	0	0	0	511	1	
11	0	0	0	0	510	1	
12	0	0	0	0	510	1	
13	0	0	0	0	510	1	
14	0	0	0	0	509	2	
15	0	0	0	0	509	1	
0	0	0	0	0	509	1	
1	0	0	0	0	509	1	
2	0	0	0	0	509	1	
3	0	0	0	0	508	1	
4	0	0	0	0	509	1	
5	0	0	0	0	511	1	
6	0	0	0	0	512	2	
7	0	0	0	0	509	1	
8	0	0	0	0	509	0	
9	0	0	0	0	510	1	
10	0	0	0	0	514	1	
11	0	0	0	0	511	1	
12	0	0	0	0	509	1	
13	0	0	0	0	510	1	
14	0	0	0	0	510	2	
15	0	0	0	0	511	1	
0	0	0	0	0	509	1	
1	0	0	0	0	508	1	
2	0	0	0	0	508	1	
3	0	0	0	0	509	1	
4	0	0	0	0	509	1	
5	0	0	0	0	511	1	
6	0	0	0	0	511	2	
7	0	0	0	0	511	1	
8	0	0	0	0	515	1	
9	0	0	0	0	512	2	
10	0	0	0	0	514	1	
11	0	0	0	0	513	1	
12	0	0	0	0	511	1	
13	0	0	0	0	512	1	
14	0	0	0	0	510	2	
15	0	0	0	0	509	1	
0	0	0	0	0	508	1	
1	0	0	0	0	512	1	
2	0	0	0	0	509	1	
3	0	0	0	0	511	1	
4	0	0	0	0	512	1	
5	0	0	0	0	512	1	
6	0	0	0	0	512	2	
7	0	0	0	0	510	1	
8	0	0	0	0	510	0	
9	0	0	0	0	511	1	
10	0	0	0	0	511	1	
11	0	0	0	0	511	1	
12	0	0	0	0	512	1	
13	0	0	0	0	511	1	
14	0	0	0	0	509	2	
15	0	0	0	0	510	1	
0	0	0	0	0	508	1	
1	0	0	0	0	505	1	
2	0	0	0	0	508	1	
3	0	0	0	0	507	1	
4	0	0	0	0	508	1	
5	0	0	0	0	508	1	
6	0	0	0	0	509	2	
7	0	0	0	0	511	1	
8	0	0	0	0	511	1	
9	0	0	0	0	512	1	
10	0	0	0	0	514	1	
11	0	0	0	0	514	1	
12	0	0	0	0	513	1	
13	0	0	0	0	511	1	
14	0	0	0	0	512	2	
15	0	0	0	0	512	1	
0	0	0	0	0	511	1	
1	0	0	0	0	509	1	
2	0	0	0	0	508	1	
3	0	0	0	0	508	1	
4	0	0	0	0	507	1	
5	0	0	0	0	507	1	
6	0	0	0	0	510	2	
7	0	0	0	0	508	1	
8	0	0	0	0	511	1	
9	0	0	0	0	510	1	
10	0	0	0	0	513	1	
11	0	0	0	0	511	1	
12	0	0	0	0	512	1	
13	0	0	0	0	512	1	
14	0	0	0	0	511	2	
15	0	0	0	0	510	1	
0	0	0	0	0	510	1	
1	0	0	0	0	508	1	
2	0	0	0	0	505	1	
3	0	0	0	0	509	1	
4	0	0	0	0	507	1	
5	0	0	0	0	507	1	
6	0	0	0	0	507	2	
7	0	0	0	0	509	1	
8	0	0	0	0	511	1	
9	0	0	0	0	511	1	
10	0	0	0	0	512	1	
11	0	0	0	0	513	1	
12	0	0	0	0	515	1	
13	0	0	0	0	514	1	
14	0	0	0	0	514	2	
15	0	0	0	0	512	1	
0	0	0	0	0	510	1	
1	0	0	0	0	508	1	
2	0	0	0	0	508	1	
3	0	0	0	0	510	1	
4	0	0	0	0	508	1	
5	0	0	0	0	509	1	
6	0	0	0	0	508	2	
7	0	0	0	0	511	1	
8	0	0	0	0	510	1	
9	0	0	0	0	510	1	
10	0	0	0	0	510	1	
11	0	0	0	0	512	1	
12	0	0	0	0	512	1	
13	0	0	0	0	512	1	
14	0	0	0	0	510	2	
15	0	0	0	0	510	1	
0	0	0	0	0	508	1	
1	0	0	0	0	509	1	
2	0	0	0	0	508	1	
3	0	0	0	0	507	1	
4	0	0	0	0	507	1	
5	0	0	0	0	508	1	
6	0	0	0	0	508	2	
7	0	0	0	0	508	1	
8	0	0	0	0	508	1	
9	0	0	0	0	508	1	
10	0	0	0	0	508	1	
11	0	0	0	0	511	1	
12	0	0	0	0	513	1	
13	0	0	0	0	513	1	
14	0	0	0	0	512	1	
15	0	0	0	0	513	1	
0	0	0	0	0	511	1	
1	0	0	0	0	514	2	
2	0	0	0	0	511	1	
3	0	0	0	0	511	1	
4	0	0	0	0	508	1	
5	0	0	0	0	508	1	
6	0	0	0	0	507	1	
7	0	0	0	0	505	1	
8	0	0	0	0	505	1	
9	0	0	0	0	508	1	
10	0	0	0	0	510	1	
11	0	0	0	0	511	1	
12	0	0	0	0	512	1	
13	0	0	0	0	515	1	
14	0	0	0	0	512	1	
15	0	0	0	0	511	1	
0	0	0	0	0	508	1	
1	0	0	0	0	511	1	
2	0	0	0	0	509	1	
3	0	0	0	0	508	1	
4	0	0	0	0	505	1	
5	0	0	0	0	507	1	
6	0	0	0	0	503	2	
7	0	0	0	0	505	1	
8	0	0	0	0	508	1	
9	0	0	0	0	511	1	
10	0	0	0	0	511	1	
11	0	0	0	0	516	1	
12	0	0	0	0	517	1	
13	0	0	0	0	515	1	
14	0	0	0	0	515	2	
15	0	0	0	0	513	1	
0	0	0	0	0	511	1	
1	0	0	0	0	510	1	
2	0	0	0	0	508	1	
3	0	0	0	0	509	1	
4	0	0	0	0	508	1	
5	0	0	0	0	509	1	
6	0	0	0	0	506	2	
7	0	0	0	0	504	1	
8	0	0	0	0	506	1	
9	0	0	0	0	507	1	
10	0	0	0	0	507	1	
11	0	0	0	0	511	1	
12	0	0	0	0	511	1	
13	0	0	0	0	513	1	
14	0	0	0	0	512	2	
15	0	0	0	0	512	1	
0	0	0	0	0	512	1	
1	0	0	0	0	511	1	
2	0	0	0	0	508	1	
3	0	0	0	0	508	1	
4	0	0	0	0	508	1	
5	0	0	0	0	507	1	
6	0	0	0	0	508	2	
7	0	0	0	0	510	1	
8	0	0	0	0	507	1	
9	0	0	0	0	507	1	
10	0	0	0	0	509	1	
11	0	0	0	0	508	1	
12	0	0	0	0	511	1	
13	0	0	0	0	509	1	
14	0	0	0	0	510	2	
15	0	0	0	0	509	1	
0	0	0	0	0	512	1	
1	0	0	0	0	512	1	
2	0	0	0	0	511	1	
3	0	0	0	0	512	1	
4	0	0	0	0	513	1	
5	0	0	0	0	510	1	
6	0	0	0	0	508	2	
7	0	0	0	0	508	1	
8	0	0	0	0	510	1	
9	0	0	0	0	510	1	
10	0	0	0	0	509	1	
11	0	0	0	0	509	1	
12	0	0	0	0	509	1	
13	0	0	0	0	511	1	
14	0	0	0	0	510	2	
15	0	0	0	0	508	1	
0	0	0	0	0	513	1	
1	0	0	0	0	512	1	
2	0	0	0	0	513	1	
3	0	0	0	0	511	1	
4	0	0	0	0	511	1	
5	0	0	0	0	511	2	
6	0	0	0	0	509	2	
7	0	0	0	0	509	1	
8	0	0	0	0	504	0	
9	0	0	0	0	504	1	
10	0	0	0	0	505	1	
11	0	0	0	0	509	1	
12	0	0	0	0	509	1	
13	0	0	0	0	512	1	
14	0	0	0	0	514	2	
15	0	0	0	0	515	1	
0	0	0	0	0	514	1	
1	0	0	0	0	512	1	
2	0	0	0	0	511	1	
3	0	0	0	0	511	1	
4	0	0	0	0	511	1	
5	0	0	0	0	511	1	
6	0	0	0	0	505	2	
7	0	0	0	0	505	1	
8	0	0	0	0	504	1	
9	0	0	0	0	501	1	
10	0	0	0	0	504	1	
11	0	0	0	0	503	1	
12	0	0	0	0	505	1	
13	0	0	0	0	510	2	
14	0	0	0	0	515	2	
15	0	0	0	0	517	2	
0	0	0	0	0	517	1	
1	0	0	0	0	514	1	
2	0	0	0	0	513	1	
3	0	0	0	0	515	1	
4	0	0	0	0	515	2	
5	0	0	0	0	510	1	
6	0	0	0	0	508	2	
7	0	0	0	0	507	1	
8	0	0	0	0	508	1	
9	0	0	0	0	509	1	
10	0	0	0	0	508	1	
11	0	0	0	0	505	1	
12	0	0	0	0	511	1	
13	0	0	0	0	507	1	
14	0	0	0	0	507	2	
15	0	0	0	0	508	1	
0	0	0	0	0	510	0	
1	0	0	0	0	510	1	
2	0	0	0	0	509	1	
3	0	0	0	0	508	1	
4	0	0	0	0	508	1	
5	0	0	0	0	508	1	
6	0	0	0	0	508	2	
7	0	0	0	0	510	1	
8	0	0	0	0	512	0	
9	0	0	0	0	511	1	
10	0	0	0	0	511	1	
11	0	0	0	0	511	1	
12	0	0	0	0	511	1	
13	0	0	0	0	507	1	
14	0	0	0	0	507	2	
15	0	0	0	0	507	1	
0	0	0	0	0	508	0	
1	0	0	0	0	509	1	
2	0	0	0	0	510	1	
3	0	0	0	0	507	1	
4	0	0	0	0	509	1	
5	0	0	0	0	508	1	
6	0	0	0	0	512	2	
7	0	0	0	0	509	1	
8	0	0	0	0	507	1	
9	0	0	0	0	505	1	
10	0	0	0	0	510	1	
11	0	0	0	0	515	1	
12	0	0	0	0	511	1	
13	0	0	0	0	511	1	
14	0	0	0	0	512	2	
15	0	0	0	0	512	1	
0	0	0	0	0	508	1	
1	0	0	0	0	510	1	
2	0	0	0	0	513	1	
3	0	0	0	0	513	1	
4	0	0	0	0	511	1	
5	0	0	0	0	510	1	
6	0	0	0	0	512	2	
7	0	0	0	0	511	1	
8	0	0	0	0	512	1	
9	0	0	0	0	511	1	
10	0	0	0	0	507	1	
11	0	0	0	0	508	1	
12	0	0	0	0	506	1	
13	0	0	0	0	509	1	
14	0	0	0	0	508	2	
15	0	0	0	0	505	1	
0	0	0	0	0	508	1	
1	0	0	0	0	511	1	
2	0	0	0	0	515	1	
3	0	0	0	0	512	1	
4	0	0	0	0	511	1	
5	0	0	0	0	511	1	
6	0	0	0	0	513	2	
7	0	0	0	0	512	1	
8	0	0	0	0	511	1	
9	0	0	0	0	511	1	
10	0	0	0	0	510	1	
11	0	0	0	0	508	1	
12	0	0	0	0	508	1	
13	0	0	0	0	507	1	
14	0	0	0	0	508	2	
15	0	0	0	0	507	1	
0	0	0	0	0	508	1	
1	0	0	0	0	508	1	
2	0	0	0	0	509	1	
3	0	0	0	0	511	1	
4	0	0	0	0	510	1	
5	0	0	0	0	510	1	
6	0	0	0	0	511	2	
7	0	0	0	0	512	1	
8	0	0	0	0	511	1	
9	0	0	0	0	508	1	
10	0	0	0	0	508	1	
11	0	0	0	0	508	1	
12	0	0	0	0	507	1	
13	0	0	0	0	506	1	
14	0	0	0	0	508	2	
15	0	0	0	0	508	1	
0	0	0	0	0	506	1	
1	0	0	0	0	504	1	
2	0	0	0	0	506	1	
3	0	0	0	0	507	2	
4	0	0	0	0	512	1	
5	0	0	0	0	515	1	
6	0	0	0	0	515	1	
7	0	0	0	0	520	1	
8	0	0	0	0	519	2	
9	0	0	0	0	519	1	
10	0	0	0	0	515	1	
11	0	0	0	0	511	1	
12	0	0	0	0	507	1	
13	0	0	0	0	501	1	
14	0	0	0	0	500	1	
15	0	0	0	0	499	1	
0	0	0	0	0	499	1	
1	0	0	0	0	504	1	
2	0	0	0	0	509	1	
3	0	0	0	0	515	1	
4	0	0	0	0	521	1	
5	0	0	0	0	523	2	
6	0	0	0	0	519	1	
7	0	0	0	0	515	2	
8	0	0	0	0	514	1	
9	0	0	0	0	514	1	
10	0	0	0	0	513	1	
11	0	0	0	0	513	1	
12	0	0	0	0	512	1	
13	0	0	0	0	509	1	
14	0	0	0	0	508	2	
15	0	0	0	0	504	1	
0	0	0	0	0	503	1	
1	0	0	0	0	501	1	
2	0	0	0	0	504	1	
3	0	0	0	0	504	1	
4	0	0	0	0	504	1	
5	0	0	0	0	509	1	
6	0	0	0	0	513	2	
7	0	0	0	0	515	1	
8	0	0	0	0	515	1	
9	0	0	0	0	513	1	
10	0	0	0	0	510	1	
11	0	0	0	0	510	1	
12	0	0	0	0	509	1	
13	0	0	0	0	507	1	
14	0	0	0	0	504	2	
15	0	0	0	0	507	1	
0	0	0	0	0	506	1	
1	0	0	0	0	506	1	
2	0	0	0	0	508	1	
3	0	0	0	0	507	1	
4	0	0	0	0	509	1	
5	0	0	0	0	508	1	
6	0	0	0	0	508	2	
7	0	0	0	0	509	1	
8	0	0	0	0	505	1	
9	0	0	0	0	505	1	
10	0	0	0	0	510	1	
11	0	0	0	0	512	1	
12	0	0	0	0	511	1	
13	0	0	0	0	514	1	
14	0	0	0	0	513	2	
15	0	0	0	0	516	2	
0	0	0	0	0	518	1	
1	0	0	0	0	515	1	
2	0	0	0	0	513	1	
3	0	0	0	0	514	1	
4	0	0	0	0	511	1	
5	0	0	0	0	508	1	
6	0	0	0	0	507	2	
7	0	0	0	0	509	1	
8	0	0	0	0	510	1	
9	0	0	0	0	512	1	
10	0	0	0	0	510	1	
11	0	0	0	0	510	1	
12	0	0	0	0	509	1	
13	0	0	0	0	510	1	
14	0	0	0	0	507	2	
15	0	0	0	0	508	1	
0	0	0	0	0	507	1	
1	0	0	0	0	509	1	
2	0	0	0	0	507	1	
3	0	0	0	0	509	1	
4	0	0	0	0	506	1	
5	0	0	0	0	508	1	
6	0	0	0	0	510	2	
7	0	0	0	0	510	1	
8	0	0	0	0	513	1	
9	0	0	0	0	514	1	
10	0	0	0	0	514	1	
11	0	0	0	0	512	1	
12	0	0	0	0	509	1	
13	0	0	0	0	513	1	
14	0	0	0	0	514	2	
15	0	0	0	0	509	1	
0	0	0	0	0	505	0	
1	0	0	0	0	507	1	
2	0	0	0	0	505	1	
3	0	0	0	0	504	1	
4	0	0	0	0	505	1	
5	0	0	0	0	506	1	
6	0	0	0	0	507	2	
7	0	0	0	0	506	1	
8	0	0	0	0	510	0	
9	0	0	0	0	511	1	
10	0	0	0	0	515	1	
11	0	0	0	0	520	1	
12	0	0	0	0	518	1	
13	0	0	0	0	515	1	
14	0	0	0	0	513	2	
15	0	0	0	0	511	1	
0	0	0	0	0	509	1	
1	0	0	0	0	511	1	
2	0	0	0	0	507	1	
3	0	0	0	0	506	1	
4	0	0	0	0	506	1	
5	0	0	0	0	506	1	
6	0	0	0	0	506	2	
7	0	0	0	0	505	1	
8	0	0	0	0	504	1	
9	0	0	0	0	507	1	
10	0	0	0	0	511	2	
11	0	0	0	0	511	1	
12	0	0	0	0	513	1	
13	0	0	0	0	514	1	
14	0	0	0	0	515	2	
15	0	0	0	0	513	1	
0	0	0	0	0	509	1	
1	0	0	0	0	509	1	
2	0	0	0	0	508	1	
3	0	0	0	0	508	1	
4	0	0	0	0	507	1	
5	0	0	0	0	505	1	
6	0	0	0	0	509	2	
7	0	0	0	0	512	1	
8	0	0	0	0	512	1	
9	0	0	0	0	515	1	
10	0	0	0	0	513	1	
11	0	0	0	0	513	1	
12	0	0	0	0	515	1	
13	0	0	0	0	513	1	
14	0	0	0	0	512	2	
15	0	0	0	0	512	1	
0	0	0	0	0	511	0	
1	0	0	0	0	512	1	
2	0	0	0	0	508	1	
3	0	0	0	0	505	1	
4	0	0	0	0	506	1	
5	0	0	0	0	506	1	
6	0	0	0	0	509	2	
7	0	0	0	0	505	1	
8	0	0	0	0	505	0	
9	0	0	0	0	507	1	
10	0	0	0	0	507	1	
11	0	0	0	0	507	1	
12	0	0	0	0	508	1	
13	0	0	0	0	508	1	
14	0	0	0	0	513	2	
15	0	0	0	0	515	1	
0	0	0	0	0	515	1	
1	0	0	0	0	512	1	
2	0	0	0	0	513	1	
3	0	0	0	0	515	2	
4	0	0	0	0	511	1	
5	0	0	0	0	510	1	
6	0	0	0	0	505	2	
7	0	0	0	0	506	1	
8	0	0	0	0	508	1	
9	0	0	0	0	507	1	
10	0	0	0	0	508	1	
11	0	0	0	0	510	1	
12	0	0	0	0	510	1	
13	0	0	0	0	510	1	
14	0	0	0	0	512	2	
15	0	0	0	0	507	1	
0	0	0	0	0	504	1	
1	0	0	0	0	505	1	
2	0	0	0	0	504	1	
3	0	0	0	0	502	1	
4	0	0	0	0	502	1	
5	0	0	0	0	504	1	
6	0	0	0	0	508	2	
7	0	0	0	0	511	1	
8	0	0	0	0	518	2	
9	0	0	0	0	522	2	
10	0	0	0	0	520	1	
11	0	0	0	0	521	1	
12	0	0	0	0	518	1	
13	0	0	0	0	517	1	
14	0	0	0	0	512	2	
15	0	0	0	0	508	1	
0	0	0	0	0	510	1	
1	0	0	0	0	509	1	
2	0	0	0	0	509	1	
3	0	0	0	0	507	1	
4	0	0	0	0	508	1	
5	0	0	0	0	507	1	
6	0	0	0	0	506	2	
7	0	0	0	0	506	1	
8	0	0	0	0	507	1	
9	0	0	0	0	507	1	
10	0	0	0	0	507	1	
11	0	0	0	0	510	1	
12	0	0	0	0	508	1	
13	0	0	0	0	512	1	
14	0	0	0	0	512	2	
15	0	0	0	0	511	1	
0	0	0	0	0	512	1	
1	0	0	0	0	508	1	
2	0	0	0	0	510	1	
3	0	0	0	0	509	1	
4	0	0	0	0	508	1	
5	0	0	0	0	508	1	
6	0	0	0	0	507	2	
7	0	0	0	0	506	1	
8	0	0	0	0	509	1	
9	0	0	0	0	507	1	
10	0	0	0	0	510	1	
11	0	0	0	0	510	1	
12	0	0	0	0	508	1	
13	0	0	0	0	510	1	
14	0	0	0	0	512	1	
15	0	0	0	0	512	2	
0	0	0	0	0	511	1	
1	0	0	0	0	511	1	
2	0	0	0	0	512	1	
3	0	0	0	0	512	1	
4	0	0	0	0	510	1	
5	0	0	0	0	509	1	
6	0	0	0	0	509	1	
7	0	0	0	0	507	1	
8	0	0	0	0	509	1	
9	0	0	0	0	506	1	
10	0	0	0	0	508	1	
11	0	0	0	0	511	1	
12	0	0	0	0	512	1	
13	0	0	0	0	514	1	
14	0	0	0	0	512	1	
15	0	0	0	0	511	1	
0	0	0	0	0	511	1	
1	0	0	0	0	509	1	
2	0	0	0	0	506	1	
3	0	0	0	0	508	1	
4	0	0	0	0	508	1	
5	0	0	0	0	508	1	
6	0	0	0	0	505	2	
7	0	0	0	0	508	1	
8	0	0	0	0	511	1	
9	0	0	0	0	511	1	
10	0	0	0	0	513	1	
11	0	0	0	0	511	1	
12	0	0	0	0	512	1	
13	0	0	0	0	513	1	
14	0	0	0	0	511	2	
15	0	0	0	0	512	1	
0	0	0	0	0	512	1	
1	0	0	0	0	510	1	
2	0	0	0	0	510	1	
3	0	0	0	0	508	1	
4	0	0	0	0	508	1	
5	0	0	0	0	508	1	
6	0	0	0	0	507	2	
7	0	0	0	0	506	1	
8	0	0	0	0	507	1	
9	0	0	0	0	508	1	
10	0	0	0	0	507	1	
11	0	0	0	0	509	1	
12	0	0	0	0	508	1	
13	0	0	0	0	510	1	
14	0	0	0	0	511	2	
15	0	0	0	0	509	1	
0	0	0	0	0	511	1	
1	0	0	0	0	512	1	
2	0	0	0	0	513	1	
3	0	0	0	0	511	1	
4	0	0	0	0	512	1	
5	0	0	0	0	510	1	
6	0	0	0	0	508	2	
7	0	0	0	0	508	1	
8	0	0	0	0	510	1	
9	0	0	0	0	509	1	
10	0	0	0	0	507	1	
11	0	0	0	0	508	1	
12	0	0	0	0	510	1	
13	0	0	0	0	510	1	
14	0	0	0	0	509	2	
15	0	0	0	0	510	1	
0	0	0	0	0	509	1	
1	0	0	0	0	511	1	
2	0	0	0	0	510	1	
3	0	0	0	0	509	1	
4	0	0	0	0	509	1	
5	0	0	0	0	511	2	
6	0	0	0	0	509	2	
7	0	0	0	0	510	1	
8	0	0	0	0	510	1	
9	0	0	0	0	509	1	
10	0	0	0	0	509	1	
11	0	0	0	0	510	1	
12	0	0	0	0	509	1	
13	0	0	0	0	508	1	
14	0	0	0	0	510	2	
15	0	0	0	0	510	1	
0	0	0	0	0	510	1	
1	0	0	0	0	510	1	
2	0	0	0	0	510	1	
3	0	0	0	0	509	1	
4	0	0	0	0	508	1	
5	0	0	0	0	509	1	
6	0	0	0	0	511	2	
7	0	0	0	0	507	1	
8	0	0	0	0	509	0	
9	0	0	0	0	511	1	
10	0	0	0	0	509	1	
11	0	0	0	0	507	1	
12	0	0	0	0	509	1	
13	0	0	0	0	508	1	
14	0	0	0	0	508	2	
15	0	0	0	0	510	1	
0	0	0	0	0	511	0	
1	0	0	0	0	509	1	
2	0	0	0	0	512	1	
3	0	0	0	0	511	1	
4	0	0	0	0	509	1	
5	0	0	0	0	511	1	
6	0	0	0	0	510	2	
7	0	0	0	0	510	1	
8	0	0	0	0	510	0	
9	0	0	0	0	508	1	
10	0	0	0	0	504	1	
11	0	0	0	0	503	1	
12	0	0	0	0	502	1	
13	0	0	0	0	503	1	
14	0	0	0	0	509	2	
15	0	0	0	0	509	1	
0	0	0	0	0	515	1	
1	0	0	0	0	516	2	
2	0	0	0	0	516	1	
3	0	0	0	0	518	1	
4	0	0	0	0	517	1	
5	0	0	0	0	512	1	
6	0	0	0	0	508	2	
7	0	0	0	0	508	1	
8	0	0	0	0	507	1	
9	0	0	0	0	505	1	
10	0	0	0	0	508	1	
11	0	0	0	0	507	1	
12	0	0	0	0	506	1	
13	0	0	0	0	507	1	
14	0	0	0	0	507	2	
15	0	0	0	0	508	1	
0	0	0	0	0	507	1	
1	0	0	0	0	508	1	
2	0	0	0	0	511	1	
3	0	0	0	0	509	1	
4	0	0	0	0	512	1	
5	0	0	0	0	512	1	
6	0	0	0	0	510	2	
7	0	0	0	0	510	1	
8	0	0	0	0	510	0	
9	0	0	0	0	510	1	
10	0	0	0	0	509	1	
11	0	0	0	0	508	1	
12	0	0	0	0	509	1	
13	0	0	0	0	507	1	
14	0	0	0	0	508	2	
15	0	0	0	0	509	1	
0	0	0	0	0	508	0	
1	0	0	0	0	508	1	
2	0	0	0	0	509	1	
3	0	0	0	0	511	1	
4	0	0	0	0	514	1	
5	0	0	0	0	517	1	
6	0	0	0	0	514	2	
7	0	0	0	0	513	1	
8	0	0	0	0	512	1	
9	0	0	0	0	509	1	
10	0	0	0	0	507	1	
11	0	0	0	0	508	2	
12	0	0	0	0	506	1	
13	0	0	0	0	507	1	
14	0	0	0	0	506	2	
15	0	0	0	0	510	1	
0	0	0	0	0	510	1	
1	0	0	0	0	511	1	
2	0	0	0	0	510	1	
3	0	0	0	0	512	1	
4	0	0	0	0	512	1	
5	0	0	0	0	510	1	
6	0	0	0	0	511	2	
7	0	0	0	0	513	1	
8	0	0	0	0	512	1	
9	0	0	0	0	511	1	
10	0	0	0	0	511	1	
11	0	0	0	0	511	1	
12	0	0	0	0	511	1	
13	0	0	0	0	505	1	
14	0	0	0	0	507	2	
15	0	0	0	0	506	1	
0	0	0	0	0	508	1	
1	0	0	0	0	507	1	
2	0	0	0	0	507	1	
3	0	0	0	0	506	1	
4	0	0	0	0	509	1	
5	0	0	0	0	511	1	
6	0	0	0	0	510	2	
7	0	0	0	0	512	1	
8	0	0	0	0	511	1	
9	0	0	0	0	512	1	
10	0	0	0	0	510	1	
11	0	0	0	0	511	1	
12	0	0	0	0	511	1	
13	0	0	0	0	509	1	
14	0	0	0	0	509	2	
15	0	0	0	0	507	1	
0	0	0	0	0	508	1	
1	0	0	0	0	509	1	
2	0	0	0	0	508	1	
3	0	0	0	0	509	2	
4	0	0	0	0	508	1	
5	0	0	0	0	509	1	
6	0	0	0	0	510	2	
7	0	0	0	0	509	1	
8	0	0	0	0	510	1	
9	0	0	0	0	511	1	
10	0	0	0	0	512	1	
11	0	0	0	0	512	1	
12	0	0	0	0	511	1	
13	0	0	0	0	511	1	
14	0	0	0	0	509	2	
15	0	0	0	0	508	1	
0	0	0	0	0	507	1	
1	0	0	0	0	508	1	
2	0	0	0	0	504	1	
3	0	0	0	0	506	1	
4	0	0	0	0	506	1	
5	0	0	0	0	504	1	
6	0	0	0	0	505	2	
7	0	0	0	0	507	1	
8	0	0	0	0	508	1	
9	0	0	0	0	511	1	
10	0	0	0	0	513	1	
11	0	0	0	0	515	1	
12	0	0	0	0	515	1	
13	0	0	0	0	513	1	
14	0	0	0	0	509	1	
15	0	0	0	0	508	1	
0	0	0	0	0	510	1	
1	0	0	0	0	510	1	
2	0	0	0	0	512	1	
3	0	0	0	0	512	1	
4	0	0	0	0	513	1	
5	0	0	0	0	513	1	
6	0	0	0	0	512	1	
7	0	0	0	0	510	1	
8	0	0	0	0	510	1	
9	0	0	0	0	510	1	
10	0	0	0	0	511	1	
11	0	0	0	0	508	1	
12	0	0	0	0	509	1	
13	0	0	0	0	510	1	
14	0	0	0	0	510	2	
15	0	0	0	0	507	1	
0	0	0	0	0	508	1	
1	0	0	0	0	506	1	
2	0	0	0	0	508	1	
3	0	0	0	0	505	1	
4	0	0	0	0	506	1	
5	0	0	0	0	509	1	
6	0	0	0	0	508	2	
7	0	0	0	0	511	1	
8	0	0	0	0	507	1	
9	0	0	0	0	509	1	
10	0	0	0	0	511	1	
11	0	0	0	0	510	1	
12	0	0	0	0	509	1	
13	0	0	0	0	510	1	
14	0	0	0	0	510	2	
15	0	0	0	0	507	1	
0	0	0	0	0	508	1	
1	0	0	0	0	508	1	
2	0	0	0	0	510	1	
3	0	0	0	0	510	1	
4	0	0	0	0	511	1	
5	0	0	0	0	513	1	
6	0	0	0	0	512	2	
7	0	0	0	0	511	1	
8	0	0	0	0	511	2	
9	0	0	0	0	511	1	
10	0	0	0	0	510	1	
11	0	0	0	0	512	1	
12	0	0	0	0	511	1	
13	0	0	0	0	512	1	
14	0	0	0	0	513	2	
15	0	0	0	0	507	1	
0	0	0	0	0	509	1	
1	0	0	0	0	508	1	
2	0	0	0	0	505	1	
3	0	0	0	0	508	1	
4	0	0	0	0	507	1	
5	0	0	0	0	508	1	
6	0	0	0	0	509	2	
7	0	0	0	0	511	1	
8	0	0	0	0	509	1	
9	0	0	0	0	511	1	
10	0	0	0	0	512	1	
11	0	0	0	0	512	1	
12	0	0	0	0	511	1	
13	0	0	0	0	511	1	
14	0	0	0	0	510	2	
15	0	0	0	0	509	1	
0	0	0	0	0	508	1	
1	0	0	0	0	509	1	
2	0	0	0	0	507	1	
3	0	0	0	0	505	1	
4	0	0	0	0	504	1	
5	0	0	0	0	506	1	
6	0	0	0	0	505	2	
7	0	0	0	0	508	1	
8	0	0	0	0	509	1	
9	0	0	0	0	512	1	
10	0	0	0	0	513	1	
11	0	0	0	0	513	1	
12	0	0	0	0	515	1	
13	0	0	0	0	518	2	
14	0	0	0	0	513	2	
15	0	0	0	0	511	1	
0	0	0	0	0	510	0	
1	0	0	0	0	510	1	
2	0	0	0	0	508	1	
3	0	0	0	0	505	1	
4	0	0	0	0	505	1	
5	0	0	0	0	507	1	
6	0	0	0	0	507	2	
7	0	0	0	0	508	1	
8	0	0	0	0	508	0	
9	0	0	0	0	508	1	
10	0	0	0	0	509	1	
11	0	0	0	0	511	2	
12	0	0	0	0	511	1	
13	0	0	0	0	509	1	
14	0	0	0	0	512	2	
15	0	0	0	0	513	1	
0	0	0	0	0	511	1	
1	0	0	0	0	510	1	
2	0	0	0	0	511	1	
3	0	0	0	0	511	1	
4	0	0	0	0	510	1	
5	0	0	0	0	510	1	
6	0	0	0	0	507	2	
7	0	0	0	0	508	1	
8	0	0	0	0	507	1	
9	0	0	0	0	510	1	
10	0	0	0	0	508	1	
11	0	0	0	0	510	1	
12	0	0	0	0	510	1	
13	0	0	0	0	508	1	
14	0	0	0	0	510	2	
15	0	0	0	0	511	1	
0	0	0	0	0	511	1	
1	0	0	0	0	510	1	
2	0	0	0	0	509	1	
3	0	0	0	0	506	1	
4	0	0	0	0	504	1	
5	0	0	0	0	505	1	
6	0	0	0	0	503	2	
7	0	0	0	0	507	1	
8	0	0	0	0	506	1	
9	0	0	0	0	511	1	
10	0	0	0	0	511	1	
11	0	0	0	0	514	1	
12	0	0	0	0	515	1	
13	0	0	0	0	514	1	
14	0	0	0	0	514	2	
15	0	0	0	0	512	1	
0	0	0	0	0	513	1	
1	0	0	0	0	514	1	
2	0	0	0	0	512	2	
3	0	0	0	0	512	1	
4	0	0	0	0	512	1	
5	0	0	0	0	511	1	
6	0	0	0	0	510	2	
7	0	0	0	0	508	1	
8	0	0	0	0	508	1	
9	0	0	0	0	509	1	
10	0	0	0	0	507	1	
11	0	0	0	0	509	1	
12	0	0	0	0	508	1	
13	0	0	0	0	508	1	
14	0	0	0	0	507	2	
15	0	0	0	0	508	1	
0	0	0	0	0	510	1	
1	0	0	0	0	509	1	
2	0	0	0	0	508	1	
3	0	0	0	0	508	1	
4	0	0	0	0	509	1	
5	0	0	0	0	508	1	
6	0	0	0	0	508	2	
7	0	0	0	0	507	1	
8	0	0	0	0	507	1	
9	0	0	0	0	507	1	
10	0	0	0	0	509	1	
11	0	0	0	0	510	1	
12	0	0	0	0	512	1	
13	0	0	0	0	512	1	
14	0	0	0	0	511	2	
15	0	0	0	0	511	1	
0	0	0	0	0	512	1	
1	0	0	0	0	512	1	
2	0	0	0	0	511	1	
3	0	0	0	0	509	1	
4	0	0	0	0	508	1	
5	0	0	0	0	508	1	
6	0	0	0	0	511	2	
7	0	0	0	0	509	1	
8	0	0	0	0	510	1	
9	0	0	0	0	510	1	
10	0	0	0	0	509	1	
11	0	0	0	0	508	1	
12	0	0	0	0	509	1	
13	0	0	0	0	511	1	
14	0	0	0	0	512	2	
15	0	0	0	0	511	1	
0	0	0	0	0	510	1	
1	0	0	0	0	511	1	
2	0	0	0	0	509	1	
3	0	0	0	0	510	1	
4	0	0	0	0	512	1	
5	0	0	0	0	510	1	
6	0	0	0	0	508	2	
7	0	0	0	0	511	1	
8	0	0	0	0	507	1	
9	0	0	0	0	508	1	
10	0	0	0	0	508	1	
11	0	0	0	0	506	1	
12	0	0	0	0	508	1	
13	0	0	0	0	510	1	
14	0	0	0	0	510	2	
15	0	0	0	0	515	1	
0	0	0	0	0	515	1	
1	0	0	0	0	516	1	
2	0	0	0	0	513	1	
3	0	0	0	0	515	1	
4	0	0	0	0	510	1	
5	0	0	0	0	510	1	
6	0	0	0	0	507	2	
7	0	0	0	0	508	1	
8	0	0	0	0	508	1	
9	0	0	0	0	508	2	
10	0	0	0	0	508	1	
11	0	0	0	0	510	1	
12	0	0	0	0	508	1	
13	0	0	0	0	510	1	
14	0	0	0	0	508	2	
15	0	0	0	0	510	1	
0	0	0	0	0	510	1	
1	0	0	0	0	511	1	
2	0	0	0	0	510	1	
3	0	0	0	0	511	1	
4	0	0	0	0	508	1	
5	0	0	0	0	511	1	
6	0	0	0	0	510	1	
7	0	0	0	0	509	2	
8	0	0	0	0	510	1	
9	0	0	0	0	507	1	
10	0	0	0	0	504	1	
11	0	0	0	0	508	1	
12	0	0	0	0	506	1	
13	0	0	0	0	506	1	
14	0	0	0	0	507	1	
15	0	0	0	0	508	1	
0	0	0	0	0	512	1	
1	0	0	0	0	513	1	
2	0	0	0	0	515	1	
3	0	0	0	0	515	1	
4	0	0	0	0	516	1	
5	0	0	0	0	513	1	
6	0	0	0	0	511	1	
7	0	0	0	0	508	1	
8	0	0	0	0	507	1	
9	0	0	0	0	507	1	
10	0	0	0	0	506	1	
11	0	0	0	0	507	1	
12	0	0	0	0	509	1	
13	0	0	0	0	510	1	
14	0	0	0	0	511	2	
15	0	0	0	0	509	1	
0	0	0	0	0	511	1	
1	0	0	0	0	511	1	
2	0	0	0	0	509	1	
3	0	0	0	0	507	1	
4	0	0	0	0	508	1	
5	0	0	0	0	507	1	
6	0	0	0	0	505	2	
7	0	0	0	0	508	1	
8	0	0	0	0	511	1	
9	0	0	0	0	512	1	
10	0	0	0	0	512	1	
11	0	0	0	0	516	1	
12	0	0	0	0	513	1	
13	0	0	0	0	511	1	
14	0	0	0	0	513	2	
15	0	0	0	0	514	1	
0	0	0	0	0	513	1	
1	0	0	0	0	509	1	
2	0	0	0	0	508	1	
3	0	0	0	0	510	1	
4	0	0	0	0	508	1	
5	0	0	0	0	508	1	
6	0	0	0	0	508	2	
7	0	0	0	0	508	1	
8	0	0	0	0	509	1	
9	0	0	0	0	507	1	
10	0	0	0	0	508	1	
11	0	0	0	0	508	1	
12	0	0	0	0	508	1	
13	0	0	0	0	507	1	
14	0	0	0	0	506	2	
15	0	0	0	0	508	1	
0	0	0	0	0	510	1	
1	0	0	0	0	508	1	
2	0	0	0	0	511	1	
3	0	0	0	0	513	1	
4	0	0	0	0	510	1	
5	0	0	0	0	511	1	
6	0	0	0	0	510	2	
7	0	0	0	0	510	1	
8	0	0	0	0	508	1	
9	0	0	0	0	508	1	
10	0	0	0	0	508	1	
11	0	0	0	0	508	1	
12	0	0	0	0	508	1	
13	0	0	0	0	509	1	
14	0	0	0	0	507	2	
15	0	0	0	0	510	1	
0	0	0	0	0	508	1	
1	0	0	0	0	508	1	
2	0	0	0	0	510	1	
3	0	0	0	0	510	1	
4	0	0	0	0	510	1	
5	0	0	0	0	511	1	
6	0	0	0	0	510	2	
7	0	0	0	0	511	1	
8	0	0	0	0	510	1	
9	0	0	0	0	509	1	
10	0	0	0	0	510	1	
11	0	0	0	0	508	1	
12	0	0	0	0	508	1	
13	0	0	0	0	505	1	
14	0	0	0	0	506	2	
15	0	0	0	0	508	1	
0	0	0	0	0	511	0	
1	0	0	0	0	512	1	
2	0	0	0	0	514	1	
3	0	0	0	0	513	1	
4	0	0	0	0	514	1	
5	0	0	0	0	512	1	
6	0	0	0	0	511	2	
7	0	0	0	0	512	1	
8	0	0	0	0	510	0	
9	0	0	0	0	509	1	
10	0	0	0	0	511	1	
11	0	0	0	0	510	1	
12	0	0	0	0	508	1	
13	0	0	0	0	508	1	
14	0	0	0	0	508	2	
15	0	0	0	0	508	1	
0	0	0	0	0	508	1	
1	0	0	0	0	508	1	
2	0	0	0	0	509	1	
3	0	0	0	0	507	1	
4	0	0	0	0	511	1	
5	0	0	0	0	510	1	
6	0	0	0	0	511	2	
7	0	0	0	0	511	1	
8	0	0	0	0	510	1	
9	0	0	0	0	509	1	
10	0	0	0	0	509	1	
11	0	0	0	0	510	1	
12	0	0	0	0	510	1	
13	0	0	0	0	508	1	
14	0	0	0	0	510	2	
15	0	0	0	0	508	1	
0	0	0	0	0	510	1	
1	0	0	0	0	511	1	
2	0	0	0	0	510	1	
3	0	0	0	0	511	1	
4	0	0	0	0	511	2	
5	0	0	0	0	511	1	
6	0	0	0	0	511	2	
7	0	0	0	0	510	1	
8	0	0	0	0	510	1	
9	0	0	0	0	511	1	
10	0	0	0	0	509	1	
11	0	0	0	0	508	1	
12	0	0	0	0	508	1	
13	0	0	0	0	508	1	
14	0	0	0	0	507	2	
15	0	0	0	0	507	1	
0	0	0	0	0	508	0	
1	0	0	0	0	511	1	
2	0	0	0	0	508	1	
3	0	0	0	0	511	1	
4	0	0	0	0	511	1	
5	0	0	0	0	512	1	
6	0	0	0	0	509	2	
7	0	0	0	0	510	1	
8	0	0	0	0	511	0	
9	0	0	0	0	509	1	
10	0	0	0	0	512	1	
11	0	0	0	0	512	1	
12	0	0	0	0	509	1	
13	0	0	0	0	511	2	
14	0	0	0	0	507	2	
15	0	0	0	0	508	1	
0	0	0	0	0	508	1	
1	0	0	0	0	510	1	
2	0	0	0	0	508	1	
3	0	0	0	0	508	1	
4	0	0	0	0	509	1	
5	0	0	0	0	511	1	
6	0	0	0	0	509	2	
7	0	0	0	0	510	1	
8	0	0	0	0	512	1	
9	0	0	0	0	512	1	
10	0	0	0	0	512	1	
11	0	0	0	0	511	1	
12	0	0	0	0	511	1	
13	0	0	0	0	511	1	
14	0	0	0	0	511	2	
15	0	0	0	0	507	1	
0	0	0	0	0	509	1	
1	0	0	0	0	508	1	
2	0	0	0	0	505	1	
3	0	0	0	0	505	1	
4	0	0	0	0	505	1	
5	0	0	0	0	508	1	
6	0	0	0	0	507	2	
7	0	0	0	0	510	1	
8	0	0	0	0	511	1	
9	0	0	0	0	512	1	
10	0	0	0	0	512	1	
11	0	0	0	0	514	1	
12	0	0	0	0	516	1	
13	0	0	0	0	512	1	
14	0	0	0	0	512	2	
15	0	0	0	0	510	1	
0	0	0	0	0	508	1	
1	0	0	0	0	508	1	
2	0	0	0	0	506	1	
3	0	0	0	0	507	1	
4	0	0	0	0	507	1	
5	0	0	0	0	511	1	
6	0	0	0	0	510	2	
7	0	0	0	0	510	1	
8	0	0	0	0	510	1	
9	0	0	0	0	510	1	
10	0	0	0	0	510	1	
11	0	0	0	0	513	1	
12	0	0	0	0	511	1	
13	0	0	0	0	511	1	
14	0	0	0	0	509	2	
15	0	0	0	0	508	1	
0	0	0	0	0	507	1	
1	0	0	0	0	507	1	
2	0	0	0	0	508	1	
3	0	0	0	0	507	1	
4	0	0	0	0	508	1	
5	0	0	0	0	505	1	
6	0	0	0	0	509	2	
7	0	0	0	0	510	1	
8	0	0	0	0	512	1	
9	0	0	0	0	512	1	
10	0	0	0	0	512	1	
11	0	0	0	0	511	1	
12	0	0	0	0	511	1	
13	0	0	0	0	511	1	
14	0	0	0	0	510	1	
15	0	0	0	0	508	1	
0	0	0	0	0	510	1	
1	0	0	0	0	509	1	
