# OpenSignals Text File Format. Version 1
# {"98:D3:71:FE:38:C0": {"position": 0, "device": "bitalino_rev", "device name": "98:D3:71:FE:38:C0", "device connection": "98:D3:71:FE:38:C0", "sampling rate": 1000, "resolution": [4, 1, 1, 1, 1, 10, 10], "firmware version": 1282, "comments": "", "keywords": "", "mode": 0, "sync interval": 2, "date": "2026-9-4", "time": "12:38:17.411", "channels": [1, 2], "sensor": ["EMGBITREV", "RAW"], "label": ["A1", "A2"], "column": ["nSeq", "I1", "I2", "O1", "O2", "A1", "A2"], "special": [{}, {}], "digital IO": [0, 0, 1, 1]}}
# EndOfHeader
0	0	0	0	0	508	2	
1	0	0	0	0	505	3	
2	0	0	0	0	510	1	
3	0	0	0	0	511	1	
4	0	0	0	0	511	1	
5	0	0	0	0	508	1	
6	0	0	0	0	511	1	
7	0	0	0	0	511	1	
8	0	0	0	0	513	2	
9	0	0	0	0	511	3	
10	0	0	0	0	508	1	
11	0	0	0	0	508	1	
12	0	0	0	0	512	1	
13	0	0	0	0	509	1	
14	0	0	0	0	510	1	
15	0	0	0	0	512	1	
0	0	0	0	0	513	2	
1	0	0	0	0	511	3	
2	0	0	0	0	510	1	
3	0	0	0	0	507	1	
4	0	0	0	0	509	1	
5	0	0	0	0	505	1	
6	0	0	0	0	507	1	
7	0	0	0	0	510	1	
8	0	0	0	0	509	1	
9	0	0	0	0	512	3	
10	0	0	0	0	510	1	
11	0	0	0	0	508	1	
12	0	0	0	0	513	1	
13	0	0	0	0	510	1	
14	0	0	0	0	508	1	
15	0	0	0	0	508	1	
0	0	0	0	0	509	1	
1	0	0	0	0	507	2	
2	0	0	0	0	509	1	
3	0	0	0	0	508	1	
4	0	0	0	0	509	1	
5	0	0	0	0	509	1	
6	0	0	0	0	511	1	
7	0	0	0	0	511	1	
8	0	0	0	0	511	1	
9	0	0	0	0	510	2	
10	0	0	0	0	511	1	
11	0	0	0	0	512	1	
12	0	0	0	0	510	1	
13	0	0	0	0	508	1	
14	0	0	0	0	507	1	
15	0	0	0	0	508	1	
0	0	0	0	0	510	1	
1	0	0	0	0	510	3	
2	0	0	0	0	510	1	
3	0	0	0	0	512	1	
4	0	0	0	0	512	1	
5	0	0	0	0	509	1	
6	0	0	0	0	510	1	
7	0	0	0	0	507	1	
8	0	0	0	0	511	2	
9	0	0	0	0	510	3	
10	0	0	0	0	509	1	
11	0	0	0	0	509	1	
12	0	0	0	0	509	1	
13	0	0	0	0	508	1	
14	0	0	0	0	508	1	
15	0	0	0	0	509	1	
0	0	0	0	0	510	2	
1	0	0	0	0	509	3	
2	0	0	0	0	509	1	
3	0	0	0	0	509	1	
4	0	0	0	0	512	1	
5	0	0	0	0	512	1	
6	0	0	0	0	509	1	
7	0	0	0	0	508	1	
8	0	0	0	0	507	2	
9	0	0	0	0	506	3	
10	0	0	0	0	509	1	
11	0	0	0	0	511	1	
12	0	0	0	0	510	1	
13	0	0	0	0	509	1	
14	0	0	0	0	511	1	
15	0	0	0	0	510	1	
0	0	0	0	0	509	2	
1	0	0	0	0	509	3	
2	0	0	0	0	510	1	
3	0	0	0	0	511	1	
4	0	0	0	0	508	1	
5	0	0	0	0	511	1	
6	0	0	0	0	509	1	
7	0	0	0	0	512	1	
8	0	0	0	0	510	1	
9	0	0	0	0	510	3	
10	0	0	0	0	510	1	
11	0	0	0	0	510	1	
12	0	0	0	0	510	1	
13	0	0	0	0	510	1	
14	0	0	0	0	509	1	
15	0	0	0	0	508	1	
0	0	0	0	0	506	1	
1	0	0	0	0	508	3	
2	0	0	0	0	511	1	
3	0	0	0	0	511	1	
4	0	0	0	0	509	1	
5	0	0	0	0	510	1	
6	0	0	0	0	509	1	
7	0	0	0	0	510	1	
8	0	0	0	0	511	2	
9	0	0	0	0	511	3	
10	0	0	0	0	511	1	
11	0	0	0	0	511	1	
12	0	0	0	0	508	1	
13	0	0	0	0	511	1	
14	0	0	0	0	509	1	
15	0	0	0	0	510	1	
0	0	0	0	0	506	2	
1	0	0	0	0	508	3	
2	0	0	0	0	511	1	
3	0	0	0	0	510	1	
4	0	0	0	0	510	1	
5	0	0	0	0	510	1	
6	0	0	0	0	508	1	
7	0	0	0	0	508	1	
8	0	0	0	0	513	2	
9	0	0	0	0	510	3	
10	0	0	0	0	509	1	
11	0	0	0	0	510	1	
12	0	0	0	0	508	1	
13	0	0	0	0	510	1	
14	0	0	0	0	509	1	
15	0	0	0	0	508	1	
0	0	0	0	0	511	2	
1	0	0	0	0	510	3	
2	0	0	0	0	508	1	
3	0	0	0	0	512	1	
4	0	0	0	0	511	1	
5	0	0	0	0	510	1	
6	0	0	0	0	508	1	
7	0	0	0	0	511	1	
8	0	0	0	0	510	2	
9	0	0	0	0	509	2	
10	0	0	0	0	511	1	
11	0	0	0	0	512	1	
12	0	0	0	0	510	1	
13	0	0	0	0	509	1	
14	0	0	0	0	508	1	
15	0	0	0	0	511	1	
0	0	0	0	0	511	1	
1	0	0	0	0	510	2	
2	0	0	0	0	509	1	
3	0	0	0	0	509	1	
4	0	0	0	0	508	1	
5	0	0	0	0	508	1	
6	0	0	0	0	511	2	
7	0	0	0	0	512	1	
8	0	0	0	0	509	1	
9	0	0	0	0	510	2	
10	0	0	0	0	509	1	
11	0	0	0	0	509	1	
12	0	0	0	0	509	1	
13	0	0	0	0	510	1	
14	0	0	0	0	508	1	
15	0	0	0	0	510	1	
0	0	0	0	0	511	2	
1	0	0	0	0	510	3	
2	0	0	0	0	511	1	
3	0	0	0	0	509	1	
4	0	0	0	0	505	1	
5	0	0	0	0	508	1	
6	0	0	0	0	511	1	
7	0	0	0	0	510	1	
8	0	0	0	0	510	2	
9	0	0	0	0	510	3	
10	0	0	0	0	509	1	
11	0	0	0	0	509	1	
12	0	0	0	0	509	1	
13	0	0	0	0	511	1	
14	0	0	0	0	508	1	
15	0	0	0	0	511	1	
0	0	0	0	0	512	2	
1	0	0	0	0	510	3	
2	0	0	0	0	509	1	
3	0	0	0	0	507	1	
4	0	0	0	0	510	1	
5	0	0	0	0	509	1	
6	0	0	0	0	511	1	
7	0	0	0	0	510	1	
8	0	0	0	0	510	1	
9	0	0	0	0	510	3	
10	0	0	0	0	511	1	
11	0	0	0	0	509	1	
12	0	0	0	0	507	1	
13	0	0	0	0	510	1	
14	0	0	0	0	511	1	
15	0	0	0	0	510	1	
0	0	0	0	0	508	2	
1	0	0	0	0	508	3	
2	0	0	0	0	508	1	
3	0	0	0	0	511	1	
4	0	0	0	0	508	1	
5	0	0	0	0	507	1	
6	0	0	0	0	512	1	
7	0	0	0	0	510	1	
8	0	0	0	0	508	2	
9	0	0	0	0	506	3	
10	0	0	0	0	507	1	
11	0	0	0	0	512	1	
12	0	0	0	0	512	2	
13	0	0	0	0	511	1	
14	0	0	0	0	507	1	
15	0	0	0	0	512	1	
0	0	0	0	0	515	2	
1	0	0	0	0	513	3	
2	0	0	0	0	508	1	
3	0	0	0	0	508	1	
4	0	0	0	0	511	1	
5	0	0	0	0	505	1	
6	0	0	0	0	505	1	
7	0	0	0	0	508	1	
8	0	0	0	0	511	2	
9	0	0	0	0	511	3	
10	0	0	0	0	511	1	
11	0	0	0	0	511	1	
12	0	0	0	0	510	1	
13	0	0	0	0	510	1	
14	0	0	0	0	511	1	
15	0	0	0	0	509	1	
0	0	0	0	0	510	1	
1	0	0	0	0	512	3	
2	0	0	0	0	510	1	
3	0	0	0	0	510	1	
4	0	0	0	0	513	1	
5	0	0	0	0	508	1	
6	0	0	0	0	510	1	
7	0	0	0	0	508	1	
8	0	0	0	0	508	1	
9	0	0	0	0	507	3	
10	0	0	0	0	507	1	
11	0	0	0	0	508	1	
12	0	0	0	0	509	1	
13	0	0	0	0	510	1	
14	0	0	0	0	509	1	
15	0	0	0	0	505	1	
0	0	0	0	0	508	2	
1	0	0	0	0	510	3	
2	0	0	0	0	512	1	
3	0	0	0	0	510	1	
4	0	0	0	0	510	1	
5	0	0	0	0	511	1	
6	0	0	0	0	512	1	
7	0	0	0	0	511	1	
8	0	0	0	0	511	1	
9	0	0	0	0	508	2	
10	0	0	0	0	510	1	
11	0	0	0	0	510	1	
12	0	0	0	0	508	1	
13	0	0	0	0	509	1	
14	0	0	0	0	511	1	
15	0	0	0	0	510	1	
0	0	0	0	0	510	1	
1	0	0	0	0	511	2	
2	0	0	0	0	508	1	
3	0	0	0	0	506	1	
4	0	0	0	0	509	1	
5	0	0	0	0	505	1	
6	0	0	0	0	512	1	
7	0	0	0	0	510	1	
8	0	0	0	0	511	1	
9	0	0	0	0	514	2	
10	0	0	0	0	512	1	
11	0	0	0	0	509	1	
12	0	0	0	0	509	1	
13	0	0	0	0	511	1	
14	0	0	0	0	510	1	
15	0	0	0	0	509	1	
0	0	0	0	0	508	2	
1	0	0	0	0	505	3	
2	0	0	0	0	509	1	
3	0	0	0	0	510	1	
4	0	0	0	0	510	1	
5	0	0	0	0	508	1	
6	0	0	0	0	510	1	
7	0	0	0	0	509	1	
8	0	0	0	0	513	2	
9	0	0	0	0	512	3	
10	0	0	0	0	510	1	
11	0	0	0	0	508	1	
12	0	0	0	0	510	1	
13	0	0	0	0	511	1	
14	0	0	0	0	512	1	
15	0	0	0	0	510	1	
0	0	0	0	0	507	2	
1	0	0	0	0	510	3	
2	0	0	0	0	511	1	
3	0	0	0	0	510	1	
4	0	0	0	0	507	1	
5	0	0	0	0	502	1	
6	0	0	0	0	504	1	
7	0	0	0	0	509	1	
8	0	0	0	0	510	1	
9	0	0	0	0	510	3	
10	0	0	0	0	512	1	
11	0	0	0	0	508	1	
12	0	0	0	0	503	1	
13	0	0	0	0	507	1	
14	0	0	0	0	511	1	
15	0	0	0	0	512	1	
0	0	0	0	0	511	2	
1	0	0	0	0	510	3	
2	0	0	0	0	512	1	
3	0	0	0	0	510	1	
4	0	0	0	0	512	1	
5	0	0	0	0	512	1	
6	0	0	0	0	511	1	
7	0	0	0	0	508	1	
8	0	0	0	0	511	2	
9	0	0	0	0	510	3	
10	0	0	0	0	511	1	
11	0	0	0	0	508	1	
12	0	0	0	0	507	1	
13	0	0	0	0	510	1	
14	0	0	0	0	510	1	
15	0	0	0	0	507	1	
0	0	0	0	0	509	2	
1	0	0	0	0	512	3	
2	0	0	0	0	510	1	
3	0	0	0	0	511	1	
4	0	0	0	0	509	1	
5	0	0	0	0	505	1	
6	0	0	0	0	510	1	
7	0	0	0	0	511	1	
8	0	0	0	0	509	1	
9	0	0	0	0	509	3	
10	0	0	0	0	508	1	
11	0	0	0	0	509	1	
12	0	0	0	0	511	1	
13	0	0	0	0	510	1	
14	0	0	0	0	511	1	
15	0	0	0	0	512	1	
0	0	0	0	0	510	2	
1	0	0	0	0	508	3	
2	0	0	0	0	509	1	
3	0	0	0	0	507	1	
4	0	0	0	0	510	1	
5	0	0	0	0	510	1	
6	0	0	0	0	510	1	
7	0	0	0	0	511	1	
8	0	0	0	0	512	1	
9	0	0	0	0	510	3	
10	0	0	0	0	511	1	
11	0	0	0	0	508	1	
12	0	0	0	0	510	1	
13	0	0	0	0	508	1	
14	0	0	0	0	510	1	
15	0	0	0	0	510	1	
0	0	0	0	0	510	1	
1	0	0	0	0	512	3	
2	0	0	0	0	511	1	
3	0	0	0	0	507	1	
4	0	0	0	0	509	1	
5	0	0	0	0	508	1	
6	0	0	0	0	508	1	
7	0	0	0	0	511	1	
8	0	0	0	0	511	1	
9	0	0	0	0	512	2	
10	0	0	0	0	509	1	
11	0	0	0	0	510	1	
12	0	0	0	0	508	1	
13	0	0	0	0	508	1	
14	0	0	0	0	508	1	
15	0	0	0	0	510	1	
0	0	0	0	0	509	1	
1	0	0	0	0	512	2	
2	0	0	0	0	508	1	
3	0	0	0	0	510	1	
4	0	0	0	0	506	1	
5	0	0	0	0	506	1	
6	0	0	0	0	509	1	
7	0	0	0	0	511	1	
8	0	0	0	0	511	1	
9	0	0	0	0	509	3	
10	0	0	0	0	508	1	
11	0	0	0	0	510	1	
12	0	0	0	0	509	1	
13	0	0	0	0	508	1	
14	0	0	0	0	509	1	
15	0	0	0	0	512	1	
0	0	0	0	0	509	2	
1	0	0	0	0	509	3	
2	0	0	0	0	511	1	
3	0	0	0	0	511	1	
4	0	0	0	0	512	1	
5	0	0	0	0	508	1	
6	0	0	0	0	509	1	
7	0	0	0	0	509	1	
8	0	0	0	0	510	2	
9	0	0	0	0	510	3	
10	0	0	0	0	508	1	
11	0	0	0	0	510	2	
12	0	0	0	0	513	1	
13	0	0	0	0	510	1	
14	0	0	0	0	510	1	
15	0	0	0	0	508	1	
0	0	0	0	0	512	2	
1	0	0	0	0	509	3	
2	0	0	0	0	511	1	
3	0	0	0	0	510	1	
4	0	0	0	0	511	1	
5	0	0	0	0	508	1	
6	0	0	0	0	508	1	
7	0	0	0	0	508	1	
8	0	0	0	0	510	2	
9	0	0	0	0	509	3	
10	0	0	0	0	510	1	
11	0	0	0	0	507	1	
12	0	0	0	0	508	1	
13	0	0	0	0	511	1	
14	0	0	0	0	511	1	
15	0	0	0	0	510	1	
0	0	0	0	0	513	2	
1	0	0	0	0	510	3	
2	0	0	0	0	510	1	
3	0	0	0	0	509	1	
4	0	0	0	0	508	1	
5	0	0	0	0	509	1	
6	0	0	0	0	511	1	
7	0	0	0	0	510	1	
8	0	0	0	0	510	2	
9	0	0	0	0	510	3	
10	0	0	0	0	511	1	
11	0	0	0	0	505	1	
12	0	0	0	0	507	1	
13	0	0	0	0	509	1	
14	0	0	0	0	508	1	
15	0	0	0	0	507	1	
0	0	0	0	0	507	1	
1	0	0	0	0	511	3	
2	0	0	0	0	517	1	
3	0	0	0	0	515	1	
4	0	0	0	0	512	1	
5	0	0	0	0	511	1	
6	0	0	0	0	511	1	
7	0	0	0	0	511	1	
8	0	0	0	0	507	2	
9	0	0	0	0	508	3	
10	0	0	0	0	508	1	
11	0	0	0	0	509	1	
12	0	0	0	0	509	1	
13	0	0	0	0	506	1	
14	0	0	0	0	509	1	
15	0	0	0	0	506	1	
0	0	0	0	0	510	2	
1	0	0	0	0	510	3	
2	0	0	0	0	511	1	
3	0	0	0	0	508	1	
4	0	0	0	0	508	1	
5	0	0	0	0	510	1	
6	0	0	0	0	508	1	
7	0	0	0	0	509	1	
8	0	0	0	0	511	1	
9	0	0	0	0	510	3	
10	0	0	0	0	511	1	
11	0	0	0	0	506	1	
12	0	0	0	0	508	1	
13	0	0	0	0	509	1	
14	0	0	0	0	511	1	
15	0	0	0	0	509	1	
0	0	0	0	0	511	1	
1	0	0	0	0	511	2	
2	0	0	0	0	510	1	
3	0	0	0	0	508	1	
4	0	0	0	0	511	1	
5	0	0	0	0	511	1	
6	0	0	0	0	510	1	
7	0	0	0	0	507	1	
8	0	0	0	0	510	1	
9	0	0	0	0	508	2	
10	0	0	0	0	510	1	
11	0	0	0	0	509	1	
12	0	0	0	0	511	1	
13	0	0	0	0	510	1	
14	0	0	0	0	509	1	
15	0	0	0	0	511	1	
0	0	0	0	0	511	1	
1	0	0	0	0	511	2	
2	0	0	0	0	509	1	
3	0	0	0	0	512	1	
4	0	0	0	0	509	1	
5	0	0	0	0	508	1	
6	0	0	0	0	508	1	
7	0	0	0	0	508	1	
8	0	0	0	0	510	2	
9	0	0	0	0	511	3	
10	0	0	0	0	510	1	
11	0	0	0	0	508	1	
12	0	0	0	0	510	1	
13	0	0	0	0	510	1	
14	0	0	0	0	508	1	
15	0	0	0	0	507	1	
0	0	0	0	0	510	2	
1	0	0	0	0	510	3	
2	0	0	0	0	508	1	
3	0	0	0	0	510	1	
4	0	0	0	0	510	1	
5	0	0	0	0	511	1	
6	0	0	0	0	510	1	
7	0	0	0	0	511	1	
8	0	0	0	0	510	1	
9	0	0	0	0	509	3	
10	0	0	0	0	510	1	
11	0	0	0	0	509	1	
12	0	0	0	0	510	1	
13	0	0	0	0	510	1	
14	0	0	0	0	509	1	
15	0	0	0	0	510	1	
0	0	0	0	0	512	2	
1	0	0	0	0	511	3	
2	0	0	0	0	511	1	
3	0	0	0	0	510	1	
4	0	0	0	0	508	1	
5	0	0	0	0	508	1	
6	0	0	0	0	509	1	
7	0	0	0	0	512	1	
8	0	0	0	0	511	2	
9	0	0	0	0	509	3	
10	0	0	0	0	509	1	
11	0	0	0	0	508	1	
12	0	0	0	0	512	1	
13	0	0	0	0	509	1	
14	0	0	0	0	506	1	
15	0	0	0	0	508	1	
0	0	0	0	0	509	2	
1	0	0	0	0	509	3	
2	0	0	0	0	511	1	
3	0	0	0	0	511	1	
4	0	0	0	0	511	1	
5	0	0	0	0	512	1	
6	0	0	0	0	507	1	
7	0	0	0	0	511	1	
8	0	0	0	0	509	2	
9	0	0	0	0	508	3	
10	0	0	0	0	511	1	
11	0	0	0	0	512	1	
12	0	0	0	0	510	1	
13	0	0	0	0	508	1	
14	0	0	0	0	510	1	
15	0	0	0	0	510	1	
0	0	0	0	0	508	2	
1	0	0	0	0	510	3	
2	0	0	0	0	510	1	
3	0	0	0	0	511	1	
4	0	0	0	0	511	1	
5	0	0	0	0	512	1	
6	0	0	0	0	508	1	
7	0	0	0	0	507	1	
8	0	0	0	0	512	2	
9	0	0	0	0	510	3	
10	0	0	0	0	508	1	
11	0	0	0	0	512	1	
12	0	0	0	0	511	1	
13	0	0	0	0	508	1	
14	0	0	0	0	510	1	
15	0	0	0	0	510	1	
0	0	0	0	0	510	2	
1	0	0	0	0	511	3	
2	0	0	0	0	508	1	
3	0	0	0	0	511	1	
4	0	0	0	0	508	1	
5	0	0	0	0	508	1	
6	0	0	0	0	508	1	
7	0	0	0	0	509	1	
8	0	0	0	0	509	1	
9	0	0	0	0	511	3	
10	0	0	0	0	511	1	
11	0	0	0	0	510	1	
12	0	0	0	0	510	1	
13	0	0	0	0	511	1	
14	0	0	0	0	509	1	
15	0	0	0	0	511	1	
0	0	0	0	0	508	1	
1	0	0	0	0	508	2	
2	0	0	0	0	511	1	
3	0	0	0	0	511	1	
4	0	0	0	0	511	1	
5	0	0	0	0	510	1	
6	0	0	0	0	509	1	
7	0	0	0	0	509	1	
8	0	0	0	0	508	1	
9	0	0	0	0	508	2	
10	0	0	0	0	512	1	
11	0	0	0	0	507	1	
12	0	0	0	0	509	1	
13	0	0	0	0	510	1	
14	0	0	0	0	508	1	
15	0	0	0	0	510	1	
0	0	0	0	0	511	1	
1	0	0	0	0	508	2	
2	0	0	0	0	511	1	
3	0	0	0	0	511	1	
4	0	0	0	0	513	1	
5	0	0	0	0	508	1	
6	0	0	0	0	508	1	
7	0	0	0	0	508	1	
8	0	0	0	0	509	2	
9	0	0	0	0	508	3	
10	0	0	0	0	511	1	
11	0	0	0	0	510	1	
12	0	0	0	0	511	1	
13	0	0	0	0	510	1	
14	0	0	0	0	510	1	
15	0	0	0	0	510	2	
0	0	0	0	0	509	2	
1	0	0	0	0	510	3	
2	0	0	0	0	510	1	
3	0	0	0	0	510	1	
4	0	0	0	0	511	1	
5	0	0	0	0	510	1	
6	0	0	0	0	510	1	
7	0	0	0	0	510	1	
8	0	0	0	0	507	2	
9	0	0	0	0	510	3	
10	0	0	0	0	510	1	
11	0	0	0	0	508	1	
12	0	0	0	0	511	1	
13	0	0	0	0	511	1	
14	0	0	0	0	510	1	
15	0	0	0	0	510	1	
0	0	0	0	0	507	2	
1	0	0	0	0	508	3	
2	0	0	0	0	510	1	
3	0	0	0	0	511	1	
4	0	0	0	0	511	1	
5	0	0	0	0	509	1	
6	0	0	0	0	509	1	
7	0	0	0	0	512	1	
8	0	0	0	0	510	2	
9	0	0	0	0	510	3	
10	0	0	0	0	510	1	
11	0	0	0	0	508	1	
12	0	0	0	0	508	1	
13	0	0	0	0	509	1	
14	0	0	0	0	511	1	
15	0	0	0	0	508	1	
0	0	0	0	0	511	2	
1	0	0	0	0	510	3	
2	0	0	0	0	508	1	
3	0	0	0	0	511	1	
4	0	0	0	0	511	1	
5	0	0	0	0	510	1	
6	0	0	0	0	510	1	
7	0	0	0	0	512	1	
8	0	0	0	0	510	2	
9	0	0	0	0	507	3	
10	0	0	0	0	508	1	
11	0	0	0	0	508	1	
12	0	0	0	0	511	1	
13	0	0	0	0	511	1	
14	0	0	0	0	510	1	
15	0	0	0	0	511	1	
0	0	0	0	0	507	1	
1	0	0	0	0	508	3	
2	0	0	0	0	509	1	
3	0	0	0	0	509	1	
4	0	0	0	0	510	1	
5	0	0	0	0	511	1	
6	0	0	0	0	509	1	
7	0	0	0	0	509	1	
8	0	0	0	0	509	2	
9	0	0	0	0	508	3	
10	0	0	0	0	510	1	
11	0	0	0	0	511	1	
12	0	0	0	0	512	1	
13	0	0	0	0	511	1	
14	0	0	0	0	508	1	
15	0	0	0	0	510	1	
0	0	0	0	0	508	1	
1	0	0	0	0	510	3	
2	0	0	0	0	508	1	
3	0	0	0	0	508	1	
4	0	0	0	0	510	1	
5	0	0	0	0	511	1	
6	0	0	0	0	510	1	
7	0	0	0	0	511	1	
8	0	0	0	0	509	2	
9	0	0	0	0	509	3	
10	0	0	0	0	509	1	
11	0	0	0	0	511	1	
12	0	0	0	0	511	1	
13	0	0	0	0	512	1	
14	0	0	0	0	509	1	
15	0	0	0	0	508	1	
0	0	0	0	0	510	1	
1	0	0	0	0	509	2	
2	0	0	0	0	509	1	
3	0	0	0	0	505	1	
4	0	0	0	0	508	1	
5	0	0	0	0	510	1	
6	0	0	0	0	507	1	
7	0	0	0	0	512	1	
8	0	0	0	0	512	1	
9	0	0	0	0	510	2	
10	0	0	0	0	511	1	
11	0	0	0	0	508	1	
12	0	0	0	0	505	1	
13	0	0	0	0	509	1	
14	0	0	0	0	511	1	
15	0	0	0	0	513	1	
0	0	0	0	0	510	1	
1	0	0	0	0	509	3	
2	0	0	0	0	513	1	
3	0	0	0	0	510	1	
4	0	0	0	0	510	1	
5	0	0	0	0	508	1	
6	0	0	0	0	507	1	
7	0	0	0	0	510	1	
8	0	0	0	0	510	2	
9	0	0	0	0	508	3	
10	0	0	0	0	509	1	
11	0	0	0	0	508	1	
12	0	0	0	0	510	1	
13	0	0	0	0	509	1	
14	0	0	0	0	508	1	
15	0	0	0	0	510	1	
0	0	0	0	0	511	2	
1	0	0	0	0	510	3	
2	0	0	0	0	508	1	
3	0	0	0	0	509	1	
4	0	0	0	0	508	1	
5	0	0	0	0	508	1	
6	0	0	0	0	509	1	
7	0	0	0	0	509	1	
8	0	0	0	0	510	2	
9	0	0	0	0	508	3	
10	0	0	0	0	510	1	
11	0	0	0	0	513	1	
12	0	0	0	0	511	1	
13	0	0	0	0	508	1	
14	0	0	0	0	511	1	
15	0	0	0	0	511	1	
0	0	0	0	0	510	2	
1	0	0	0	0	508	3	
2	0	0	0	0	508	1	
3	0	0	0	0	510	1	
4	0	0	0	0	511	1	
5	0	0	0	0	508	1	
6	0	0	0	0	510	1	
7	0	0	0	0	507	1	
8	0	0	0	0	508	1	
9	0	0	0	0	508	3	
10	0	0	0	0	510	1	
11	0	0	0	0	508	1	
12	0	0	0	0	508	1	
13	0	0	0	0	510	1	
14	0	0	0	0	510	1	
15	0	0	0	0	513	1	
0	0	0	0	0	511	2	
1	0	0	0	0	510	3	
2	0	0	0	0	510	1	
3	0	0	0	0	509	1	
4	0	0	0	0	508	1	
5	0	0	0	0	510	1	
6	0	0	0	0	505	1	
7	0	0	0	0	508	1	
8	0	0	0	0	511	2	
9	0	0	0	0	510	3	
10	0	0	0	0	508	1	
11	0	0	0	0	511	1	
12	0	0	0	0	510	1	
13	0	0	0	0	510	1	
14	0	0	0	0	510	1	
15	0	0	0	0	509	1	
0	0	0	0	0	508	2	
1	0	0	0	0	511	3	
2	0	0	0	0	511	1	
3	0	0	0	0	511	1	
4	0	0	0	0	511	1	
5	0	0	0	0	510	1	
6	0	0	0	0	511	1	
7	0	0	0	0	509	1	
8	0	0	0	0	507	2	
9	0	0	0	0	510	3	
10	0	0	0	0	508	1	
11	0	0	0	0	506	1	
12	0	0	0	0	508	1	
13	0	0	0	0	510	1	
14	0	0	0	0	511	1	
15	0	0	0	0	511	1	
0	0	0	0	0	509	2	
1	0	0	0	0	512	3	
2	0	0	0	0	512	1	
3	0	0	0	0	509	1	
4	0	0	0	0	508	1	
5	0	0	0	0	509	1	
6	0	0	0	0	511	1	
7	0	0	0	0	511	1	
8	0	0	0	0	510	1	
9	0	0	0	0	509	2	
10	0	0	0	0	511	1	
11	0	0	0	0	510	1	
12	0	0	0	0	511	1	
13	0	0	0	0	509	1	
14	0	0	0	0	511	1	
15	0	0	0	0	507	1	
0	0	0	0	0	511	1	
1	0	0	0	0	508	2	
2	0	0	0	0	510	1	
3	0	0	0	0	509	1	
4	0	0	0	0	512	1	
5	0	0	0	0	510	1	
6	0	0	0	0	509	1	
7	0	0	0	0	510	1	
8	0	0	0	0	510	1	
9	0	0	0	0	511	2	
10	0	0	0	0	510	1	
11	0	0	0	0	509	1	
12	0	0	0	0	509	1	
13	0	0	0	0	509	1	
14	0	0	0	0	511	1	
15	0	0	0	0	507	1	
0	0	0	0	0	509	2	
1	0	0	0	0	508	3	
2	0	0	0	0	510	1	
3	0	0	0	0	508	1	
4	0	0	0	0	511	1	
5	0	0	0	0	510	1	
6	0	0	0	0	512	1	
7	0	0	0	0	510	1	
8	0	0	0	0	511	2	
9	0	0	0	0	510	3	
10	0	0	0	0	511	1	
11	0	0	0	0	509	1	
12	0	0	0	0	510	1	
13	0	0	0	0	510	1	
14	0	0	0	0	510	1	
15	0	0	0	0	511	1	
0	0	0	0	0	508	1	
1	0	0	0	0	508	3	
2	0	0	0	0	508	1	
3	0	0	0	0	507	1	
4	0	0	0	0	511	1	
5	0	0	0	0	511	1	
6	0	0	0	0	508	1	
7	0	0	0	0	508	1	
8	0	0	0	0	512	2	
9	0	0	0	0	511	3	
10	0	0	0	0	511	1	
11	0	0	0	0	509	1	
12	0	0	0	0	512	1	
13	0	0	0	0	508	1	
14	0	0	0	0	503	1	
15	0	0	0	0	508	1	
0	0	0	0	0	511	1	
1	0	0	0	0	511	3	
2	0	0	0	0	511	1	
3	0	0	0	0	508	1	
4	0	0	0	0	509	1	
5	0	0	0	0	509	1	
6	0	0	0	0	508	1	
7	0	0	0	0	510	1	
8	0	0	0	0	510	2	
9	0	0	0	0	510	3	
10	0	0	0	0	509	1	
11	0	0	0	0	510	1	
12	0	0	0	0	509	1	
13	0	0	0	0	510	1	
14	0	0	0	0	511	1	
15	0	0	0	0	507	1	
0	0	0	0	0	508	1	
1	0	0	0	0	509	3	
2	0	0	0	0	512	1	
3	0	0	0	0	510	1	
4	0	0	0	0	511	1	
5	0	0	0	0	512	1	
6	0	0	0	0	510	1	
7	0	0	0	0	506	1	
8	0	0	0	0	509	1	
9	0	0	0	0	511	3	
10	0	0	0	0	512	1	
11	0	0	0	0	511	2	
12	0	0	0	0	509	1	
13	0	0	0	0	510	1	
14	0	0	0	0	511	1	
15	0	0	0	0	512	1	
0	0	0	0	0	511	2	
1	0	0	0	0	508	3	
2	0	0	0	0	505	1	
3	0	0	0	0	508	1	
4	0	0	0	0	508	1	
5	0	0	0	0	511	1	
6	0	0	0	0	507	1	
7	0	0	0	0	508	1	
8	0	0	0	0	512	2	
9	0	0	0	0	513	3	
10	0	0	0	0	512	1	
11	0	0	0	0	511	1	
12	0	0	0	0	506	1	
13	0	0	0	0	507	1	
14	0	0	0	0	507	1	
15	0	0	0	0	509	1	
0	0	0	0	0	508	2	
1	0	0	0	0	510	3	
2	0	0	0	0	509	1	
3	0	0	0	0	511	1	
4	0	0	0	0	510	2	
5	0	0	0	0	511	1	
6	0	0	0	0	510	1	
7	0	0	0	0	512	1	
8	0	0	0	0	509	1	
9	0	0	0	0	508	2	
10	0	0	0	0	508	1	
11	0	0	0	0	508	1	
12	0	0	0	0	511	1	
13	0	0	0	0	508	1	
14	0	0	0	0	508	1	
15	0	0	0	0	510	1	
0	0	0	0	0	510	1	
1	0	0	0	0	510	2	
2	0	0	0	0	508	1	
3	0	0	0	0	511	1	
4	0	0	0	0	509	1	
5	0	0	0	0	512	1	
6	0	0	0	0	510	1	
7	0	0	0	0	512	1	
8	0	0	0	0	509	1	
9	0	0	0	0	509	2	
10	0	0	0	0	510	1	
11	0	0	0	0	508	1	
12	0	0	0	0	507	1	
13	0	0	0	0	510	1	
14	0	0	0	0	510	1	
15	0	0	0	0	509	1	
0	0	0	0	0	510	1	
1	0	0	0	0	511	3	
2	0	0	0	0	508	1	
3	0	0	0	0	508	1	
4	0	0	0	0	508	1	
5	0	0	0	0	509	1	
6	0	0	0	0	508	1	
7	0	0	0	0	512	1	
8	0	0	0	0	513	2	
9	0	0	0	0	511	3	
10	0	0	0	0	511	1	
11	0	0	0	0	509	1	
12	0	0	0	0	509	1	
13	0	0	0	0	507	1	
14	0	0	0	0	511	1	
15	0	0	0	0	508	1	
0	0	0	0	0	510	2	
1	0	0	0	0	511	3	
2	0	0	0	0	509	1	
3	0	0	0	0	506	1	
4	0	0	0	0	509	1	
5	0	0	0	0	511	1	
6	0	0	0	0	510	2	
7	0	0	0	0	510	1	
8	0	0	0	0	510	2	
9	0	0	0	0	512	3	
10	0	0	0	0	509	1	
11	0	0	0	0	510	1	
12	0	0	0	0	512	1	
13	0	0	0	0	509	1	
14	0	0	0	0	509	1	
15	0	0	0	0	505	1	
0	0	0	0	0	509	2	
1	0	0	0	0	511	3	
2	0	0	0	0	511	1	
3	0	0	0	0	511	1	
4	0	0	0	0	510	1	
5	0	0	0	0	508	1	
6	0	0	0	0	510	1	
7	0	0	0	0	508	1	
8	0	0	0	0	510	1	
9	0	0	0	0	509	3	
10	0	0	0	0	510	2	
11	0	0	0	0	509	1	
12	0	0	0	0	510	1	
13	0	0	0	0	512	1	
14	0	0	0	0	509	1	
15	0	0	0	0	510	1	
0	0	0	0	0	510	2	
1	0	0	0	0	509	3	
2	0	0	0	0	508	1	
3	0	0	0	0	509	1	
4	0	0	0	0	509	1	
5	0	0	0	0	507	1	
6	0	0	0	0	511	1	
7	0	0	0	0	508	1	
8	0	0	0	0	510	2	
9	0	0	0	0	511	3	
10	0	0	0	0	508	1	
11	0	0	0	0	510	1	
12	0	0	0	0	512	1	
13	0	0	0	0	509	1	
14	0	0	0	0	510	1	
15	0	0	0	0	508	1	
0	0	0	0	0	512	2	
1	0	0	0	0	511	3	
2	0	0	0	0	511	1	
3	0	0	0	0	511	1	
4	0	0	0	0	511	1	
5	0	0	0	0	510	1	
6	0	0	0	0	510	1	
7	0	0	0	0	507	1	
8	0	0	0	0	509	2	
9	0	0	0	0	512	3	
10	0	0	0	0	508	1	
11	0	0	0	0	508	1	
12	0	0	0	0	510	1	
13	0	0	0	0	511	1	
14	0	0	0	0	511	1	
15	0	0	0	0	508	1	
0	0	0	0	0	511	1	
1	0	0	0	0	511	3	
2	0	0	0	0	510	1	
3	0	0	0	0	511	1	
4	0	0	0	0	508	1	
5	0	0	0	0	511	1	
6	0	0	0	0	508	1	
7	0	0	0	0	508	1	
8	0	0	0	0	508	1	
9	0	0	0	0	508	2	
10	0	0	0	0	509	1	
11	0	0	0	0	510	1	
12	0	0	0	0	511	1	
13	0	0	0	0	510	1	
14	0	0	0	0	508	1	
15	0	0	0	0	508	1	
0	0	0	0	0	508	1	
1	0	0	0	0	509	2	
2	0	0	0	0	510	1	
3	0	0	0	0	511	1	
4	0	0	0	0	510	1	
5	0	0	0	0	510	1	
6	0	0	0	0	511	1	
7	0	0	0	0	509	1	
8	0	0	0	0	511	2	
9	0	0	0	0	508	3	
10	0	0	0	0	510	1	
11	0	0	0	0	510	1	
12	0	0	0	0	511	1	
13	0	0	0	0	508	1	
14	0	0	0	0	512	1	
15	0	0	0	0	511	1	
0	0	0	0	0	510	2	
1	0	0	0	0	507	3	
2	0	0	0	0	511	1	
3	0	0	0	0	508	1	
4	0	0	0	0	507	1	
5	0	0	0	0	510	1	
6	0	0	0	0	512	1	
7	0	0	0	0	510	1	
8	0	0	0	0	510	2	
9	0	0	0	0	511	3	
10	0	0	0	0	510	1	
11	0	0	0	0	507	1	
12	0	0	0	0	510	1	
13	0	0	0	0	510	1	
14	0	0	0	0	507	1	
15	0	0	0	0	508	1	
0	0	0	0	0	510	2	
1	0	0	0	0	510	3	
2	0	0	0	0	512	1	
3	0	0	0	0	512	1	
4	0	0	0	0	510	1	
5	0	0	0	0	511	1	
6	0	0	0	0	508	1	
7	0	0	0	0	507	1	
8	0	0	0	0	511	2	
9	0	0	0	0	511	3	
10	0	0	0	0	511	1	
11	0	0	0	0	509	1	
12	0	0	0	0	507	1	
13	0	0	0	0	508	1	
14	0	0	0	0	508	1	
15	0	0	0	0	511	1	
0	0	0	0	0	510	2	
1	0	0	0	0	513	3	
2	0	0	0	0	511	1	
3	0	0	0	0	511	1	
4	0	0	0	0	508	1	
5	0	0	0	0	508	1	
6	0	0	0	0	509	1	
7	0	0	0	0	510	1	
8	0	0	0	0	510	2	
9	0	0	0	0	509	3	
10	0	0	0	0	507	1	
11	0	0	0	0	508	1	
12	0	0	0	0	510	1	
13	0	0	0	0	510	1	
14	0	0	0	0	510	1	
15	0	0	0	0	510	1	
0	0	0	0	0	510	2	
1	0	0	0	0	511	3	
2	0	0	0	0	510	1	
3	0	0	0	0	510	1	
4	0	0	0	0	506	1	
5	0	0	0	0	508	1	
6	0	0	0	0	511	1	
7	0	0	0	0	509	1	
8	0	0	0	0	510	2	
9	0	0	0	0	508	3	
10	0	0	0	0	510	1	
11	0	0	0	0	508	1	
12	0	0	0	0	511	1	
13	0	0	0	0	508	1	
14	0	0	0	0	507	1	
15	0	0	0	0	509	1	
0	0	0	0	0	510	2	
1	0	0	0	0	508	3	
2	0	0	0	0	511	1	
3	0	0	0	0	511	1	
4	0	0	0	0	511	1	
5	0	0	0	0	510	1	
6	0	0	0	0	510	1	
7	0	0	0	0	508	1	
8	0	0	0	0	510	1	
9	0	0	0	0	512	3	
10	0	0	0	0	510	1	
11	0	0	0	0	507	1	
12	0	0	0	0	508	1	
13	0	0	0	0	511	1	
14	0	0	0	0	512	1	
15	0	0	0	0	507	1	
0	0	0	0	0	510	1	
1	0	0	0	0	510	2	
2	0	0	0	0	512	1	
3	0	0	0	0	512	1	
4	0	0	0	0	511	1	
5	0	0	0	0	510	1	
6	0	0	0	0	509	1	
7	0	0	0	0	508	1	
8	0	0	0	0	511	1	
9	0	0	0	0	508	2	
10	0	0	0	0	509	1	
11	0	0	0	0	511	1	
12	0	0	0	0	508	1	
13	0	0	0	0	512	1	
14	0	0	0	0	507	1	
15	0	0	0	0	504	1	
0	0	0	0	0	508	1	
1	0	0	0	0	508	2	
2	0	0	0	0	511	1	
3	0	0	0	0	512	1	
4	0	0	0	0	509	1	
5	0	0	0	0	510	1	
6	0	0	0	0	511	1	
7	0	0	0	0	509	1	
8	0	0	0	0	508	1	
9	0	0	0	0	511	3	
10	0	0	0	0	505	1	
11	0	0	0	0	511	1	
12	0	0	0	0	511	1	
13	0	0	0	0	513	1	
14	0	0	0	0	511	1	
15	0	0	0	0	511	1	
0	0	0	0	0	510	2	
1	0	0	0	0	507	3	
2	0	0	0	0	508	1	
3	0	0	0	0	510	1	
4	0	0	0	0	508	1	
5	0	0	0	0	508	1	
6	0	0	0	0	511	1	
7	0	0	0	0	509	1	
8	0	0	0	0	508	2	
9	0	0	0	0	510	3	
10	0	0	0	0	508	1	
11	0	0	0	0	510	1	
12	0	0	0	0	509	1	
13	0	0	0	0	507	1	
14	0	0	0	0	508	1	
15	0	0	0	0	509	1	
0	0	0	0	0	512	1	
1	0	0	0	0	513	3	
2	0	0	0	0	512	1	
3	0	0	0	0	510	1	
4	0	0	0	0	508	1	
5	0	0	0	0	509	1	
6	0	0	0	0	511	1	
7	0	0	0	0	509	1	
8	0	0	0	0	509	2	
9	0	0	0	0	509	3	
10	0	0	0	0	512	1	
11	0	0	0	0	508	1	
12	0	0	0	0	506	1	
13	0	0	0	0	511	1	
14	0	0	0	0	508	1	
15	0	0	0	0	509	1	
0	0	0	0	0	509	2	
1	0	0	0	0	507	3	
2	0	0	0	0	507	1	
3	0	0	0	0	515	1	
4	0	0	0	0	512	1	
5	0	0	0	0	512	1	
6	0	0	0	0	508	1	
7	0	0	0	0	511	1	
8	0	0	0	0	510	2	
9	0	0	0	0	509	3	
10	0	0	0	0	509	1	
11	0	0	0	0	510	1	
12	0	0	0	0	508	1	
13	0	0	0	0	510	1	
14	0	0	0	0	509	1	
15	0	0	0	0	510	1	
0	0	0	0	0	506	2	
1	0	0	0	0	508	3	
2	0	0	0	0	510	1	
3	0	0	0	0	510	1	
4	0	0	0	0	513	1	
5	0	0	0	0	507	1	
6	0	0	0	0	510	1	
7	0	0	0	0	508	1	
8	0	0	0	0	510	1	
9	0	0	0	0	510	3	
10	0	0	0	0	510	1	
11	0	0	0	0	510	1	
12	0	0	0	0	511	1	
13	0	0	0	0	508	1	
14	0	0	0	0	511	1	
15	0	0	0	0	510	1	
0	0	0	0	0	507	2	
1	0	0	0	0	509	3	
2	0	0	0	0	512	1	
3	0	0	0	0	509	1	
4	0	0	0	0	508	1	
5	0	0	0	0	508	1	
6	0	0	0	0	507	1	
7	0	0	0	0	509	1	
8	0	0	0	0	512	2	
9	0	0	0	0	511	3	
10	0	0	0	0	510	1	
11	0	0	0	0	510	1	
12	0	0	0	0	511	1	
13	0	0	0	0	508	1	
14	0	0	0	0	510	1	
15	0	0	0	0	507	1	
0	0	0	0	0	509	1	
1	0	0	0	0	511	2	
2	0	0	0	0	511	1	
3	0	0	0	0	511	1	
4	0	0	0	0	511	1	
5	0	0	0	0	511	1	
6	0	0	0	0	510	1	
7	0	0	0	0	508	1	
8	0	0	0	0	509	1	
9	0	0	0	0	507	2	
10	0	0	0	0	505	1	
11	0	0	0	0	504	1	
12	0	0	0	0	506	1	
13	0	0	0	0	510	1	
14	0	0	0	0	508	1	
15	0	0	0	0	511	1	
0	0	0	0	0	517	2	
1	0	0	0	0	519	2	
2	0	0	0	0	511	1	
3	0	0	0	0	510	1	
4	0	0	0	0	510	1	
5	0	0	0	0	509	1	
6	0	0	0	0	509	1	
7	0	0	0	0	509	1	
8	0	0	0	0	510	2	
9	0	0	0	0	512	3	
10	0	0	0	0	511	1	
11	0	0	0	0	510	1	
12	0	0	0	0	507	1	
13	0	0	0	0	511	1	
14	0	0	0	0	511	1	
15	0	0	0	0	511	1	
0	0	0	0	0	508	2	
1	0	0	0	0	510	3	
2	0	0	0	0	510	1	
3	0	0	0	0	508	1	
4	0	0	0	0	510	1	
5	0	0	0	0	508	1	
6	0	0	0	0	507	1	
7	0	0	0	0	512	1	
8	0	0	0	0	508	2	
9	0	0	0	0	512	3	
10	0	0	0	0	512	1	
11	0	0	0	0	508	1	
12	0	0	0	0	508	1	
13	0	0	0	0	511	1	
14	0	0	0	0	509	1	
15	0	0	0	0	509	1	
0	0	0	0	0	506	2	
1	0	0	0	0	508	3	
2	0	0	0	0	509	1	
3	0	0	0	0	510	1	
4	0	0	0	0	511	1	
5	0	0	0	0	511	1	
6	0	0	0	0	511	1	
7	0	0	0	0	509	1	
8	0	0	0	0	510	2	
9	0	0	0	0	505	3	
10	0	0	0	0	507	2	
11	0	0	0	0	508	1	
12	0	0	0	0	511	1	
13	0	0	0	0	512	1	
14	0	0	0	0	511	1	
15	0	0	0	0	510	1	
0	0	0	0	0	511	2	
1	0	0	0	0	511	3	
2	0	0	0	0	510	1	
3	0	0	0	0	511	1	
4	0	0	0	0	511	1	
5	0	0	0	0	510	1	
6	0	0	0	0	510	1	
7	0	0	0	0	511	1	
8	0	0	0	0	508	1	
9	0	0	0	0	507	3	
10	0	0	0	0	507	1	
11	0	0	0	0	510	1	
12	0	0	0	0	511	1	
13	0	0	0	0	510	1	
14	0	0	0	0	511	1	
15	0	0	0	0	509	1	
0	0	0	0	0	507	1	
1	0	0	0	0	511	3	
2	0	0	0	0	512	1	
3	0	0	0	0	505	1	
4	0	0	0	0	507	1	
5	0	0	0	0	508	1	
6	0	0	0	0	510	1	
7	0	0	0	0	509	1	
8	0	0	0	0	513	2	
9	0	0	0	0	509	3	
10	0	0	0	0	507	1	
11	0	0	0	0	510	1	
12	0	0	0	0	511	1	
13	0	0	0	0	511	1	
14	0	0	0	0	510	1	
15	0	0	0	0	511	1	
0	0	0	0	0	511	1	
1	0	0	0	0	506	3	
2	0	0	0	0	508	1	
3	0	0	0	0	504	1	
4	0	0	0	0	504	1	
5	0	0	0	0	504	1	
6	0	0	0	0	499	1	
7	0	0	0	0	500	1	
8	0	0	0	0	504	1	
9	0	0	0	0	509	3	
10	0	0	0	0	524	2	
11	0	0	0	0	523	2	
12	0	0	0	0	520	1	
13	0	0	0	0	523	1	
14	0	0	0	0	527	1	
15	0	0	0	0	515	1	
0	0	0	0	0	509	1	
1	0	0	0	0	504	2	
2	0	0	0	0	504	1	
3	0	0	0	0	505	1	
4	0	0	0	0	507	1	
5	0	0	0	0	505	1	
6	0	0	0	0	504	1	
7	0	0	0	0	508	1	
8	0	0	0	0	510	1	
9	0	0	0	0	505	2	
10	0	0	0	0	506	1	
11	0	0	0	0	507	1	
12	0	0	0	0	510	1	
13	0	0	0	0	511	1	
14	0	0	0	0	511	1	
15	0	0	0	0	508	1	
0	0	0	0	0	510	2	
1	0	0	0	0	510	3	
2	0	0	0	0	508	1	
3	0	0	0	0	510	1	
4	0	0	0	0	509	1	
5	0	0	0	0	508	1	
6	0	0	0	0	508	1	
7	0	0	0	0	511	1	
8	0	0	0	0	511	2	
9	0	0	0	0	511	3	
10	0	0	0	0	510	1	
11	0	0	0	0	510	1	
12	0	0	0	0	509	1	
13	0	0	0	0	509	1	
14	0	0	0	0	510	1	
15	0	0	0	0	510	1	
0	0	0	0	0	510	2	
1	0	0	0	0	510	3	
2	0	0	0	0	509	1	
3	0	0	0	0	507	1	
4	0	0	0	0	509	1	
5	0	0	0	0	510	1	
6	0	0	0	0	509	1	
7	0	0	0	0	510	1	
8	0	0	0	0	508	2	
9	0	0	0	0	510	3	
10	0	0	0	0	509	1	
11	0	0	0	0	508	1	
12	0	0	0	0	507	1	
13	0	0	0	0	509	1	
14	0	0	0	0	511	1	
15	0	0	0	0	511	1	
0	0	0	0	0	509	2	
1	0	0	0	0	511	3	
2	0	0	0	0	513	2	
3	0	0	0	0	511	1	
4	0	0	0	0	510	1	
5	0	0	0	0	510	1	
6	0	0	0	0	508	1	
7	0	0	0	0	512	1	
8	0	0	0	0	507	2	
9	0	0	0	0	508	3	
10	0	0	0	0	509	1	
11	0	0	0	0	508	1	
12	0	0	0	0	509	1	
13	0	0	0	0	510	1	
14	0	0	0	0	515	1	
15	0	0	0	0	512	1	
0	0	0	0	0	509	1	
1	0	0	0	0	510	3	
2	0	0	0	0	512	1	
3	0	0	0	0	508	1	
4	0	0	0	0	510	1	
5	0	0	0	0	511	1	
6	0	0	0	0	508	1	
7	0	0	0	0	508	1	
8	0	0	0	0	509	2	
9	0	0	0	0	512	3	
10	0	0	0	0	511	1	
11	0	0	0	0	508	1	
12	0	0	0	0	509	1	
13	0	0	0	0	510	1	
14	0	0	0	0	511	1	
15	0	0	0	0	512	1	
0	0	0	0	0	510	1	
1	0	0	0	0	506	3	
2	0	0	0	0	505	1	
3	0	0	0	0	510	1	
4	0	0	0	0	510	1	
5	0	0	0	0	510	1	
6	0	0	0	0	512	2	
7	0	0	0	0	511	1	
8	0	0	0	0	510	2	
9	0	0	0	0	509	3	
10	0	0	0	0	511	1	
11	0	0	0	0	504	1	
12	0	0	0	0	509	1	
13	0	0	0	0	511	1	
14	0	0	0	0	512	1	
15	0	0	0	0	508	1	
0	0	0	0	0	508	2	
1	0	0	0	0	508	3	
2	0	0	0	0	512	1	
3	0	0	0	0	511	1	
4	0	0	0	0	510	1	
5	0	0	0	0	509	1	
6	0	0	0	0	509	1	
7	0	0	0	0	509	1	
8	0	0	0	0	508	1	
9	0	0	0	0	509	2	
10	0	0	0	0	508	1	
11	0	0	0	0	510	1	
12	0	0	0	0	511	1	
13	0	0	0	0	509	1	
14	0	0	0	0	510	1	
15	0	0	0	0	510	1	
0	0	0	0	0	511	1	
1	0	0	0	0	510	2	
2	0	0	0	0	510	1	
3	0	0	0	0	510	1	
4	0	0	0	0	510	1	
5	0	0	0	0	510	1	
6	0	0	0	0	509	1	
7	0	0	0	0	509	1	
8	0	0	0	0	511	1	
9	0	0	0	0	510	2	
10	0	0	0	0	510	1	
11	0	0	0	0	511	1	
12	0	0	0	0	509	1	
13	0	0	0	0	508	1	
14	0	0	0	0	509	1	
15	0	0	0	0	510	1	
0	0	0	0	0	511	2	
1	0	0	0	0	511	3	
2	0	0	0	0	511	1	
3	0	0	0	0	509	1	
4	0	0	0	0	508	1	
5	0	0	0	0	510	1	
6	0	0	0	0	511	1	
7	0	0	0	0	510	1	
8	0	0	0	0	512	2	
9	0	0	0	0	509	3	
10	0	0	0	0	508	1	
11	0	0	0	0	507	1	
12	0	0	0	0	510	1	
13	0	0	0	0	509	1	
14	0	0	0	0	510	1	
15	0	0	0	0	512	1	
0	0	0	0	0	510	2	
1	0	0	0	0	508	3	
2	0	0	0	0	508	1	
3	0	0	0	0	510	1	
4	0	0	0	0	510	1	
5	0	0	0	0	508	1	
6	0	0	0	0	508	1	
7	0	0	0	0	511	1	
8	0	0	0	0	508	2	
9	0	0	0	0	511	3	
10	0	0	0	0	511	1	
11	0	0	0	0	508	1	
12	0	0	0	0	509	1	
13	0	0	0	0	510	1	
14	0	0	0	0	513	1	
15	0	0	0	0	510	1	
0	0	0	0	0	510	2	
1	0	0	0	0	508	3	
2	0	0	0	0	510	1	
3	0	0	0	0	508	1	
4	0	0	0	0	509	1	
5	0	0	0	0	509	1	
6	0	0	0	0	510	1	
7	0	0	0	0	508	1	
8	0	0	0	0	509	1	
9	0	0	0	0	508	3	
10	0	0	0	0	511	1	
11	0	0	0	0	510	1	
12	0	0	0	0	510	1	
13	0	0	0	0	509	1	
14	0	0	0	0	510	1	
15	0	0	0	0	510	1	
0	0	0	0	0	512	2	
1	0	0	0	0	511	3	
2	0	0	0	0	507	1	
3	0	0	0	0	509	1	
4	0	0	0	0	510	1	
5	0	0	0	0	510	1	
6	0	0	0	0	510	1	
7	0	0	0	0	509	1	
8	0	0	0	0	511	2	
9	0	0	0	0	510	3	
10	0	0	0	0	508	1	
11	0	0	0	0	508	1	
12	0	0	0	0	508	1	
13	0	0	0	0	508	1	
14	0	0	0	0	508	1	
15	0	0	0	0	510	1	
0	0	0	0	0	510	2	
1	0	0	0	0	511	3	
2	0	0	0	0	511	1	
3	0	0	0	0	510	1	
4	0	0	0	0	511	1	
5	0	0	0	0	509	1	
6	0	0	0	0	508	1	
7	0	0	0	0	511	1	
8	0	0	0	0	511	2	
9	0	0	0	0	510	3	
10	0	0	0	0	510	1	
11	0	0	0	0	509	1	
12	0	0	0	0	510	1	
13	0	0	0	0	508	1	
14	0	0	0	0	508	1	
15	0	0	0	0	509	1	
0	0	0	0	0	508	1	
1	0	0	0	0	509	3	
2	0	0	0	0	510	1	
3	0	0	0	0	510	1	
4	0	0	0	0	510	1	
5	0	0	0	0	508	1	
6	0	0	0	0	512	1	
7	0	0	0	0	510	1	
8	0	0	0	0	506	1	
9	0	0	0	0	511	2	
10	0	0	0	0	511	1	
11	0	0	0	0	510	1	
12	0	0	0	0	505	1	
13	0	0	0	0	508	1	
14	0	0	0	0	511	1	
15	0	0	0	0	510	1	
0	0	0	0	0	512	1	
1	0	0	0	0	510	2	
2	0	0	0	0	508	1	
3	0	0	0	0	509	1	
4	0	0	0	0	508	1	
5	0	0	0	0	508	1	
6	0	0	0	0	509	1	
7	0	0	0	0	510	1	
8	0	0	0	0	511	1	
9	0	0	0	0	510	2	
10	0	0	0	0	509	1	
11	0	0	0	0	507	1	
12	0	0	0	0	509	1	
13	0	0	0	0	511	1	
14	0	0	0	0	508	1	
15	0	0	0	0	509	1	
0	0	0	0	0	506	1	
1	0	0	0	0	504	3	
2	0	0	0	0	504	1	
3	0	0	0	0	504	1	
4	0	0	0	0	508	1	
5	0	0	0	0	512	1	
6	0	0	0	0	516	1	
7	0	0	0	0	518	1	
8	0	0	0	0	524	2	
9	0	0	0	0	522	3	
10	0	0	0	0	514	1	
11	0	0	0	0	509	1	
12	0	0	0	0	505	1	
13	0	0	0	0	506	1	
14	0	0	0	0	508	1	
15	0	0	0	0	507	1	
0	0	0	0	0	508	2	
1	0	0	0	0	510	3	
2	0	0	0	0	508	1	
3	0	0	0	0	507	1	
4	0	0	0	0	510	1	
5	0	0	0	0	510	1	
6	0	0	0	0	508	1	
7	0	0	0	0	508	1	
8	0	0	0	0	512	2	
9	0	0	0	0	512	3	
10	0	0	0	0	512	1	
11	0	0	0	0	505	1	
12	0	0	0	0	507	1	
13	0	0	0	0	510	1	
14	0	0	0	0	510	1	
15	0	0	0	0	508	1	
0	0	0	0	0	505	1	
1	0	0	0	0	508	3	
2	0	0	0	0	511	1	
3	0	0	0	0	510	1	
4	0	0	0	0	510	1	
5	0	0	0	0	508	1	
6	0	0	0	0	508	1	
7	0	0	0	0	509	1	
8	0	0	0	0	511	2	
9	0	0	0	0	511	3	
10	0	0	0	0	506	1	
11	0	0	0	0	512	1	
12	0	0	0	0	511	1	
13	0	0	0	0	508	1	
14	0	0	0	0	509	1	
15	0	0	0	0	507	1	
0	0	0	0	0	508	1	
1	0	0	0	0	511	3	
2	0	0	0	0	512	1	
3	0	0	0	0	512	1	
4	0	0	0	0	511	1	
5	0	0	0	0	509	1	
6	0	0	0	0	508	1	
7	0	0	0	0	508	1	
8	0	0	0	0	510	2	
9	0	0	0	0	512	3	
10	0	0	0	0	509	1	
11	0	0	0	0	508	1	
12	0	0	0	0	510	1	
13	0	0	0	0	511	1	
14	0	0	0	0	509	1	
15	0	0	0	0	507	1	
0	0	0	0	0	508	1	
1	0	0	0	0	510	3	
2	0	0	0	0	509	1	
3	0	0	0	0	508	1	
4	0	0	0	0	508	1	
5	0	0	0	0	509	1	
6	0	0	0	0	510	1	
7	0	0	0	0	511	2	
8	0	0	0	0	510	2	
9	0	0	0	0	511	3	
10	0	0	0	0	511	1	
11	0	0	0	0	512	1	
12	0	0	0	0	510	1	
13	0	0	0	0	508	1	
14	0	0	0	0	508	1	
15	0	0	0	0	508	1	
0	0	0	0	0	511	2	
1	0	0	0	0	511	3	
2	0	0	0	0	510	1	
3	0	0	0	0	511	1	
4	0	0	0	0	512	1	
5	0	0	0	0	510	1	
6	0	0	0	0	508	1	
7	0	0	0	0	510	1	
8	0	0	0	0	513	1	
9	0	0	0	0	510	2	
10	0	0	0	0	505	1	
11	0	0	0	0	508	1	
12	0	0	0	0	508	1	
13	0	0	0	0	511	1	
14	0	0	0	0	510	1	
15	0	0	0	0	507	1	
0	0	0	0	0	508	1	
1	0	0	0	0	507	2	
2	0	0	0	0	507	1	
3	0	0	0	0	504	1	
4	0	0	0	0	507	1	
5	0	0	0	0	511	1	
6	0	0	0	0	513	1	
7	0	0	0	0	515	1	
8	0	0	0	0	515	2	
9	0	0	0	0	512	3	
10	0	0	0	0	511	1	
11	0	0	0	0	508	1	
12	0	0	0	0	511	1	
13	0	0	0	0	511	1	
14	0	0	0	0	511	1	
15	0	0	0	0	509	1	
0	0	0	0	0	508	2	
1	0	0	0	0	507	3	
2	0	0	0	0	509	1	
3	0	0	0	0	508	1	
4	0	0	0	0	509	1	
5	0	0	0	0	508	1	
6	0	0	0	0	509	1	
7	0	0	0	0	509	1	
8	0	0	0	0	509	2	
9	0	0	0	0	513	3	
10	0	0	0	0	512	1	
11	0	0	0	0	510	1	
12	0	0	0	0	507	1	
13	0	0	0	0	508	1	
14	0	0	0	0	509	1	
15	0	0	0	0	511	1	
0	0	0	0	0	510	1	
1	0	0	0	0	508	3	
2	0	0	0	0	509	1	
3	0	0	0	0	509	1	
4	0	0	0	0	510	1	
5	0	0	0	0	512	1	
6	0	0	0	0	510	1	
7	0	0	0	0	511	1	
8	0	0	0	0	509	2	
9	0	0	0	0	510	3	
10	0	0	0	0	508	1	
11	0	0	0	0	507	1	
12	0	0	0	0	508	1	
13	0	0	0	0	509	1	
14	0	0	0	0	508	1	
15	0	0	0	0	510	1	
0	0	0	0	0	509	2	
1	0	0	0	0	510	3	
2	0	0	0	0	512	1	
3	0	0	0	0	511	1	
4	0	0	0	0	508	1	
5	0	0	0	0	508	1	
6	0	0	0	0	508	1	
7	0	0	0	0	508	1	
8	0	0	0	0	508	1	
9	0	0	0	0	512	3	
10	0	0	0	0	513	1	
11	0	0	0	0	512	1	
12	0	0	0	0	511	1	
13	0	0	0	0	512	1	
14	0	0	0	0	511	1	
15	0	0	0	0	512	1	
0	0	0	0	0	509	2	
1	0	0	0	0	507	3	
2	0	0	0	0	509	1	
3	0	0	0	0	506	1	
4	0	0	0	0	509	1	
5	0	0	0	0	512	1	
6	0	0	0	0	511	1	
7	0	0	0	0	510	1	
8	0	0	0	0	511	2	
9	0	0	0	0	509	3	
10	0	0	0	0	509	1	
11	0	0	0	0	511	1	
12	0	0	0	0	510	1	
13	0	0	0	0	510	1	
14	0	0	0	0	509	1	
15	0	0	0	0	508	1	
0	0	0	0	0	509	2	
1	0	0	0	0	511	3	
2	0	0	0	0	508	1	
3	0	0	0	0	505	1	
4	0	0	0	0	506	1	
5	0	0	0	0	510	1	
6	0	0	0	0	511	1	
7	0	0	0	0	513	1	
8	0	0	0	0	514	2	
9	0	0	0	0	513	3	
10	0	0	0	0	508	1	
11	0	0	0	0	507	1	
12	0	0	0	0	507	1	
13	0	0	0	0	511	1	
14	0	0	0	0	511	1	
15	0	0	0	0	510	1	
0	0	0	0	0	509	1	
1	0	0	0	0	508	2	
2	0	0	0	0	511	1	
3	0	0	0	0	510	1	
4	0	0	0	0	507	1	
5	0	0	0	0	507	1	
6	0	0	0	0	506	1	
7	0	0	0	0	511	1	
8	0	0	0	0	511	1	
9	0	0	0	0	508	2	
10	0	0	0	0	512	1	
11	0	0	0	0	512	1	
12	0	0	0	0	511	1	
13	0	0	0	0	510	1	
14	0	0	0	0	508	1	
15	0	0	0	0	509	1	
0	0	0	0	0	508	1	
1	0	0	0	0	512	2	
2	0	0	0	0	511	1	
3	0	0	0	0	509	1	
4	0	0	0	0	510	1	
5	0	0	0	0	507	1	
6	0	0	0	0	511	1	
7	0	0	0	0	508	1	
8	0	0	0	0	510	2	
9	0	0	0	0	508	3	
10	0	0	0	0	511	1	
11	0	0	0	0	508	1	
12	0	0	0	0	506	1	
13	0	0	0	0	508	1	
14	0	0	0	0	511	1	
15	0	0	0	0	512	1	
0	0	0	0	0	511	2	
1	0	0	0	0	511	3	
2	0	0	0	0	510	1	
3	0	0	0	0	509	1	
4	0	0	0	0	510	1	
5	0	0	0	0	506	1	
6	0	0	0	0	509	1	
7	0	0	0	0	513	1	
8	0	0	0	0	508	2	
9	0	0	0	0	509	3	
10	0	0	0	0	512	1	
11	0	0	0	0	510	1	
12	0	0	0	0	510	1	
13	0	0	0	0	509	1	
14	0	0	0	0	508	1	
15	0	0	0	0	510	1	
0	0	0	0	0	508	2	
1	0	0	0	0	511	3	
2	0	0	0	0	510	1	
3	0	0	0	0	508	1	
4	0	0	0	0	506	1	
5	0	0	0	0	505	1	
6	0	0	0	0	508	1	
7	0	0	0	0	513	1	
8	0	0	0	0	512	2	
9	0	0	0	0	516	3	
10	0	0	0	0	517	1	
11	0	0	0	0	510	1	
12	0	0	0	0	511	1	
13	0	0	0	0	510	1	
14	0	0	0	0	508	1	
15	0	0	0	0	508	1	
0	0	0	0	0	508	2	
1	0	0	0	0	508	3	
2	0	0	0	0	508	1	
3	0	0	0	0	509	1	
4	0	0	0	0	508	1	
5	0	0	0	0	508	1	
6	0	0	0	0	507	1	
7	0	0	0	0	507	1	
8	0	0	0	0	511	2	
9	0	0	0	0	510	3	
10	0	0	0	0	511	2	
11	0	0	0	0	511	1	
12	0	0	0	0	509	1	
13	0	0	0	0	508	1	
14	0	0	0	0	510	1	
15	0	0	0	0	510	1	
0	0	0	0	0	508	2	
1	0	0	0	0	511	3	
2	0	0	0	0	511	1	
3	0	0	0	0	510	1	
4	0	0	0	0	507	1	
5	0	0	0	0	508	1	
6	0	0	0	0	508	1	
7	0	0	0	0	510	1	
8	0	0	0	0	508	2	
9	0	0	0	0	510	3	
10	0	0	0	0	510	1	
11	0	0	0	0	511	1	
12	0	0	0	0	511	1	
13	0	0	0	0	510	1	
14	0	0	0	0	508	1	
15	0	0	0	0	509	1	
0	0	0	0	0	510	2	
1	0	0	0	0	511	3	
2	0	0	0	0	510	1	
3	0	0	0	0	508	1	
4	0	0	0	0	509	1	
5	0	0	0	0	512	1	
6	0	0	0	0	512	1	
7	0	0	0	0	511	1	
8	0	0	0	0	510	2	
9	0	0	0	0	510	3	
10	0	0	0	0	510	1	
11	0	0	0	0	510	1	
12	0	0	0	0	510	1	
13	0	0	0	0	509	1	
14	0	0	0	0	508	1	
15	0	0	0	0	508	1	
0	0	0	0	0	509	1	
1	0	0	0	0	510	2	
2	0	0	0	0	512	1	
3	0	0	0	0	510	1	
4	0	0	0	0	508	1	
5	0	0	0	0	509	1	
6	0	0	0	0	511	1	
7	0	0	0	0	509	1	
8	0	0	0	0	508	1	
9	0	0	0	0	508	2	
10	0	0	0	0	510	1	
11	0	0	0	0	509	1	
12	0	0	0	0	508	1	
13	0	0	0	0	510	1	
14	0	0	0	0	510	1	
15	0	0	0	0	512	1	
0	0	0	0	0	511	1	
1	0	0	0	0	514	2	
2	0	0	0	0	511	1	
3	0	0	0	0	503	1	
4	0	0	0	0	511	1	
5	0	0	0	0	508	1	
6	0	0	0	0	507	1	
7	0	0	0	0	508	1	
8	0	0	0	0	507	2	
9	0	0	0	0	507	3	
10	0	0	0	0	510	1	
11	0	0	0	0	508	1	
12	0	0	0	0	510	1	
13	0	0	0	0	509	1	
14	0	0	0	0	513	1	
15	0	0	0	0	513	1	
0	0	0	0	0	512	2	
1	0	0	0	0	509	3	
2	0	0	0	0	508	1	
3	0	0	0	0	510	1	
4	0	0	0	0	509	1	
5	0	0	0	0	508	1	
6	0	0	0	0	509	1	
7	0	0	0	0	510	1	
8	0	0	0	0	509	2	
9	0	0	0	0	507	3	
10	0	0	0	0	510	2	
11	0	0	0	0	508	1	
12	0	0	0	0	509	1	
13	0	0	0	0	509	1	
14	0	0	0	0	511	1	
15	0	0	0	0	512	1	
0	0	0	0	0	509	2	
1	0	0	0	0	510	3	
2	0	0	0	0	511	1	
3	0	0	0	0	509	1	
4	0	0	0	0	510	1	
5	0	0	0	0	510	1	
6	0	0	0	0	508	1	
7	0	0	0	0	508	1	
8	0	0	0	0	511	2	
9	0	0	0	0	511	3	
10	0	0	0	0	511	1	
11	0	0	0	0	510	1	
12	0	0	0	0	510	1	
13	0	0	0	0	506	1	
14	0	0	0	0	510	1	
15	0	0	0	0	507	1	
0	0	0	0	0	508	2	
1	0	0	0	0	512	3	
2	0	0	0	0	512	1	
3	0	0	0	0	508	1	
4	0	0	0	0	508	1	
5	0	0	0	0	510	1	
6	0	0	0	0	509	1	
7	0	0	0	0	509	1	
8	0	0	0	0	508	2	
9	0	0	0	0	510	3	
10	0	0	0	0	510	1	
11	0	0	0	0	508	1	
12	0	0	0	0	508	1	
13	0	0	0	0	509	1	
14	0	0	0	0	513	1	
15	0	0	0	0	509	1	
0	0	0	0	0	509	2	
1	0	0	0	0	511	3	
2	0	0	0	0	510	1	
3	0	0	0	0	509	1	
4	0	0	0	0	507	1	
5	0	0	0	0	510	1	
6	0	0	0	0	510	1	
7	0	0	0	0	508	1	
8	0	0	0	0	511	1	
9	0	0	0	0	511	3	
10	0	0	0	0	509	1	
11	0	0	0	0	511	1	
12	0	0	0	0	509	1	
13	0	0	0	0	509	1	
14	0	0	0	0	511	1	
15	0	0	0	0	509	1	
0	0	0	0	0	510	2	
1	0	0	0	0	508	3	
2	0	0	0	0	508	1	
3	0	0	0	0	510	1	
4	0	0	0	0	512	1	
5	0	0	0	0	511	1	
6	0	0	0	0	511	1	
7	0	0	0	0	512	1	
8	0	0	0	0	510	2	
9	0	0	0	0	508	2	
10	0	0	0	0	505	1	
11	0	0	0	0	507	2	
12	0	0	0	0	510	1	
13	0	0	0	0	509	1	
14	0	0	0	0	510	1	
15	0	0	0	0	512	1	
0	0	0	0	0	512	1	
1	0	0	0	0	512	2	
2	0	0	0	0	510	1	
3	0	0	0	0	508	1	
4	0	0	0	0	507	1	
5	0	0	0	0	507	1	
6	0	0	0	0	508	1	
7	0	0	0	0	511	1	
8	0	0	0	0	508	1	
9	0	0	0	0	510	2	
10	0	0	0	0	510	1	
11	0	0	0	0	511	1	
12	0	0	0	0	510	1	
13	0	0	0	0	508	1	
14	0	0	0	0	508	1	
15	0	0	0	0	511	1	
0	0	0	0	0	512	2	
1	0	0	0	0	511	3	
2	0	0	0	0	509	1	
3	0	0	0	0	508	1	
4	0	0	0	0	509	1	
5	0	0	0	0	510	1	
6	0	0	0	0	510	1	
7	0	0	0	0	509	1	
8	0	0	0	0	509	2	
9	0	0	0	0	510	3	
10	0	0	0	0	506	1	
11	0	0	0	0	508	1	
12	0	0	0	0	512	1	
13	0	0	0	0	518	1	
14	0	0	0	0	514	1	
15	0	0	0	0	510	1	
0	0	0	0	0	509	2	
1	0	0	0	0	508	3	
2	0	0	0	0	510	1	
3	0	0	0	0	508	1	
4	0	0	0	0	509	1	
5	0	0	0	0	510	1	
6	0	0	0	0	508	1	
7	0	0	0	0	508	1	
8	0	0	0	0	510	2	
9	0	0	0	0	508	3	
10	0	0	0	0	509	1	
11	0	0	0	0	509	1	
12	0	0	0	0	511	1	
13	0	0	0	0	507	1	
14	0	0	0	0	508	1	
15	0	0	0	0	509	1	
0	0	0	0	0	511	2	
1	0	0	0	0	508	3	
2	0	0	0	0	508	1	
3	0	0	0	0	508	1	
4	0	0	0	0	510	1	
5	0	0	0	0	511	1	
6	0	0	0	0	510	1	
7	0	0	0	0	509	1	
8	0	0	0	0	510	2	
9	0	0	0	0	508	3	
10	0	0	0	0	511	1	
11	0	0	0	0	511	1	
12	0	0	0	0	510	1	
13	0	0	0	0	510	1	
14	0	0	0	0	512	1	
15	0	0	0	0	510	1	
0	0	0	0	0	507	1	
1	0	0	0	0	509	3	
2	0	0	0	0	510	1	
3	0	0	0	0	509	1	
4	0	0	0	0	511	1	
5	0	0	0	0	510	1	
6	0	0	0	0	508	1	
7	0	0	0	0	511	1	
8	0	0	0	0	509	2	
9	0	0	0	0	509	3	
10	0	0	0	0	511	1	
11	0	0	0	0	509	1	
12	0	0	0	0	508	1	
13	0	0	0	0	508	1	
14	0	0	0	0	511	1	
15	0	0	0	0	511	1	
0	0	0	0	0	510	2	
1	0	0	0	0	511	3	
2	0	0	0	0	510	1	
3	0	0	0	0	509	1	
4	0	0	0	0	511	1	
5	0	0	0	0	510	1	
6	0	0	0	0	511	1	
7	0	0	0	0	510	1	
8	0	0	0	0	511	2	
9	0	0	0	0	507	3	
10	0	0	0	0	510	1	
11	0	0	0	0	508	1	
12	0	0	0	0	511	1	
13	0	0	0	0	509	1	
14	0	0	0	0	507	1	
15	0	0	0	0	513	1	
0	0	0	0	0	511	2	
1	0	0	0	0	511	3	
2	0	0	0	0	507	1	
3	0	0	0	0	512	1	
4	0	0	0	0	511	1	
5	0	0	0	0	509	1	
6	0	0	0	0	508	1	
7	0	0	0	0	511	1	
8	0	0	0	0	508	1	
9	0	0	0	0	508	2	
10	0	0	0	0	508	1	
11	0	0	0	0	512	1	
12	0	0	0	0	510	1	
13	0	0	0	0	508	1	
14	0	0	0	0	508	1	
15	0	0	0	0	508	1	
0	0	0	0	0	510	1	
1	0	0	0	0	510	2	
2	0	0	0	0	512	1	
3	0	0	0	0	510	1	
4	0	0	0	0	508	1	
5	0	0	0	0	507	1	
6	0	0	0	0	510	1	
7	0	0	0	0	508	1	
8	0	0	0	0	508	1	
9	0	0	0	0	508	2	
10	0	0	0	0	512	2	
11	0	0	0	0	511	1	
12	0	0	0	0	513	1	
13	0	0	0	0	513	1	
14	0	0	0	0	509	1	
15	0	0	0	0	507	1	
0	0	0	0	0	510	2	
1	0	0	0	0	510	3	
2	0	0	0	0	511	1	
3	0	0	0	0	507	1	
4	0	0	0	0	504	1	
5	0	0	0	0	509	1	
6	0	0	0	0	511	1	
7	0	0	0	0	510	1	
8	0	0	0	0	510	2	
9	0	0	0	0	510	3	
10	0	0	0	0	510	1	
11	0	0	0	0	511	1	
12	0	0	0	0	510	1	
13	0	0	0	0	510	1	
14	0	0	0	0	510	1	
15	0	0	0	0	508	1	
0	0	0	0	0	508	1	
1	0	0	0	0	511	3	
2	0	0	0	0	511	1	
3	0	0	0	0	508	1	
4	0	0	0	0	510	1	
5	0	0	0	0	508	1	
6	0	0	0	0	508	1	
7	0	0	0	0	508	1	
8	0	0	0	0	508	2	
9	0	0	0	0	510	3	
10	0	0	0	0	511	1	
11	0	0	0	0	512	1	
12	0	0	0	0	511	1	
13	0	0	0	0	509	1	
14	0	0	0	0	508	1	
15	0	0	0	0	508	1	
0	0	0	0	0	509	2	
1	0	0	0	0	508	3	
2	0	0	0	0	511	1	
3	0	0	0	0	508	1	
4	0	0	0	0	508	1	
5	0	0	0	0	509	1	
6	0	0	0	0	508	1	
7	0	0	0	0	510	1	
8	0	0	0	0	511	2	
9	0	0	0	0	509	3	
10	0	0	0	0	509	1	
11	0	0	0	0	511	1	
12	0	0	0	0	511	1	
13	0	0	0	0	512	1	
14	0	0	0	0	509	1	
15	0	0	0	0	508	1	
0	0	0	0	0	511	2	
1	0	0	0	0	512	3	
2	0	0	0	0	510	1	
3	0	0	0	0	509	1	
4	0	0	0	0	510	1	
5	0	0	0	0	508	1	
6	0	0	0	0	510	1	
7	0	0	0	0	508	1	
8	0	0	0	0	508	2	
9	0	0	0	0	509	3	
10	0	0	0	0	509	1	
11	0	0	0	0	509	1	
12	0	0	0	0	508	1	
13	0	0	0	0	509	1	
14	0	0	0	0	508	1	
15	0	0	0	0	509	1	
0	0	0	0	0	508	2	
1	0	0	0	0	513	3	
2	0	0	0	0	510	1	
3	0	0	0	0	511	1	
4	0	0	0	0	512	1	
5	0	0	0	0	510	1	
6	0	0	0	0	510	1	
7	0	0	0	0	508	1	
8	0	0	0	0	508	2	
9	0	0	0	0	510	3	
10	0	0	0	0	510	1	
11	0	0	0	0	508	1	
12	0	0	0	0	511	1	
13	0	0	0	0	510	1	
14	0	0	0	0	509	1	
15	0	0	0	0	508	1	
0	0	0	0	0	510	2	
1	0	0	0	0	511	3	
2	0	0	0	0	510	1	
3	0	0	0	0	510	1	
4	0	0	0	0	510	1	
5	0	0	0	0	509	1	
6	0	0	0	0	508	1	
7	0	0	0	0	512	1	
8	0	0	0	0	510	1	
9	0	0	0	0	511	2	
10	0	0	0	0	510	1	
11	0	0	0	0	509	1	
12	0	0	0	0	509	1	
13	0	0	0	0	509	1	
14	0	0	0	0	508	1	
15	0	0	0	0	510	1	
0	0	0	0	0	509	1	
1	0	0	0	0	508	2	
2	0	0	0	0	509	1	
3	0	0	0	0	508	1	
4	0	0	0	0	511	1	
5	0	0	0	0	512	1	
6	0	0	0	0	511	1	
7	0	0	0	0	510	1	
8	0	0	0	0	510	1	
9	0	0	0	0	510	2	
10	0	0	0	0	511	1	
11	0	0	0	0	511	2	
12	0	0	0	0	506	1	
13	0	0	0	0	507	1	
14	0	0	0	0	513	1	
15	0	0	0	0	511	1	
0	0	0	0	0	510	2	
1	0	0	0	0	510	3	
2	0	0	0	0	511	1	
3	0	0	0	0	511	1	
4	0	0	0	0	510	1	
5	0	0	0	0	509	1	
6	0	0	0	0	509	1	
7	0	0	0	0	509	1	
8	0	0	0	0	509	2	
9	0	0	0	0	510	3	
10	0	0	0	0	511	1	
11	0	0	0	0	506	1	
12	0	0	0	0	510	1	
13	0	0	0	0	512	1	
14	0	0	0	0	509	1	
15	0	0	0	0	509	1	
0	0	0	0	0	508	2	
1	0	0	0	0	510	3	
2	0	0	0	0	510	1	
3	0	0	0	0	508	1	
4	0	0	0	0	508	1	
5	0	0	0	0	508	1	
6	0	0	0	0	510	1	
7	0	0	0	0	508	1	
8	0	0	0	0	511	1	
9	0	0	0	0	509	3	
10	0	0	0	0	512	1	
11	0	0	0	0	508	1	
12	0	0	0	0	507	1	
13	0	0	0	0	510	1	
14	0	0	0	0	511	1	
15	0	0	0	0	511	1	
0	0	0	0	0	510	1	
1	0	0	0	0	512	3	
2	0	0	0	0	511	1	
3	0	0	0	0	510	1	
4	0	0	0	0	509	1	
5	0	0	0	0	509	1	
6	0	0	0	0	508	1	
7	0	0	0	0	508	1	
8	0	0	0	0	510	2	
9	0	0	0	0	510	3	
10	0	0	0	0	511	1	
11	0	0	0	0	509	1	
12	0	0	0	0	511	1	
13	0	0	0	0	510	1	
14	0	0	0	0	510	1	
15	0	0	0	0	509	1	
0	0	0	0	0	509	2	
1	0	0	0	0	510	3	
2	0	0	0	0	508	1	
3	0	0	0	0	510	1	
4	0	0	0	0	511	1	
5	0	0	0	0	511	1	
6	0	0	0	0	509	1	
7	0	0	0	0	506	1	
8	0	0	0	0	505	1	
9	0	0	0	0	511	3	
10	0	0	0	0	508	1	
11	0	0	0	0	508	1	
12	0	0	0	0	510	1	
13	0	0	0	0	512	1	
14	0	0	0	0	509	1	
15	0	0	0	0	510	1	
0	0	0	0	0	512	2	
1	0	0	0	0	515	3	
2	0	0	0	0	512	1	
3	0	0	0	0	511	1	
4	0	0	0	0	508	1	
5	0	0	0	0	510	1	
6	0	0	0	0	507	1	
7	0	0	0	0	508	1	
8	0	0	0	0	508	2	
9	0	0	0	0	508	3	
10	0	0	0	0	505	1	
11	0	0	0	0	508	1	
12	0	0	0	0	511	1	
13	0	0	0	0	509	1	
14	0	0	0	0	511	1	
15	0	0	0	0	511	1	
0	0	0	0	0	513	2	
1	0	0	0	0	513	2	
2	0	0	0	0	511	1	
3	0	0	0	0	509	1	
4	0	0	0	0	510	1	
5	0	0	0	0	508	1	
6	0	0	0	0	511	1	
7	0	0	0	0	508	1	
8	0	0	0	0	510	2	
9	0	0	0	0	508	2	
10	0	0	0	0	508	1	
11	0	0	0	0	508	1	
12	0	0	0	0	509	1	
13	0	0	0	0	510	1	
14	0	0	0	0	509	1	
15	0	0	0	0	509	1	
0	0	0	0	0	508	1	
1	0	0	0	0	513	2	
2	0	0	0	0	511	1	
3	0	0	0	0	509	1	
4	0	0	0	0	508	1	
5	0	0	0	0	509	1	
6	0	0	0	0	510	1	
7	0	0	0	0	509	1	
8	0	0	0	0	510	2	
9	0	0	0	0	508	3	
10	0	0	0	0	512	1	
11	0	0	0	0	511	1	
12	0	0	0	0	507	1	
13	0	0	0	0	508	1	
14	0	0	0	0	510	1	
15	0	0	0	0	508	1	
0	0	0	0	0	508	2	
1	0	0	0	0	508	3	
2	0	0	0	0	509	1	
3	0	0	0	0	511	1	
4	0	0	0	0	512	1	
5	0	0	0	0	511	1	
6	0	0	0	0	511	1	
7	0	0	0	0	510	1	
8	0	0	0	0	508	2	
9	0	0	0	0	508	3	
10	0	0	0	0	510	1	
11	0	0	0	0	511	1	
12	0	0	0	0	507	1	
13	0	0	0	0	510	1	
14	0	0	0	0	510	1	
15	0	0	0	0	512	1	
0	0	0	0	0	510	2	
1	0	0	0	0	512	3	
2	0	0	0	0	510	1	
3	0	0	0	0	508	1	
4	0	0	0	0	510	1	
5	0	0	0	0	511	1	
6	0	0	0	0	508	1	
7	0	0	0	0	510	1	
8	0	0	0	0	510	2	
9	0	0	0	0	511	3	
10	0	0	0	0	511	1	
11	0	0	0	0	509	1	
12	0	0	0	0	509	1	
13	0	0	0	0	510	1	
14	0	0	0	0	509	1	
15	0	0	0	0	507	1	
0	0	0	0	0	507	2	
1	0	0	0	0	509	3	
2	0	0	0	0	511	1	
3	0	0	0	0	511	1	
4	0	0	0	0	508	1	
5	0	0	0	0	510	1	
6	0	0	0	0	508	1	
7	0	0	0	0	510	1	
8	0	0	0	0	513	1	
9	0	0	0	0	511	3	
10	0	0	0	0	511	1	
11	0	0	0	0	508	1	
12	0	0	0	0	508	1	
13	0	0	0	0	506	1	
14	0	0	0	0	510	1	
15	0	0	0	0	509	1	
0	0	0	0	0	511	2	
1	0	0	0	0	510	3	
2	0	0	0	0	512	1	
3	0	0	0	0	508	1	
4	0	0	0	0	509	1	
5	0	0	0	0	508	1	
6	0	0	0	0	509	1	
7	0	0	0	0	509	1	
8	0	0	0	0	509	2	
9	0	0	0	0	511	3	
10	0	0	0	0	510	1	
11	0	0	0	0	507	1	
12	0	0	0	0	508	1	
13	0	0	0	0	512	1	
14	0	0	0	0	507	1	
15	0	0	0	0	511	1	
0	0	0	0	0	511	2	
1	0	0	0	0	510	3	
2	0	0	0	0	510	1	
3	0	0	0	0	511	1	
4	0	0	0	0	508	1	
5	0	0	0	0	509	1	
6	0	0	0	0	507	1	
7	0	0	0	0	509	1	
8	0	0	0	0	508	2	
9	0	0	0	0	509	3	
10	0	0	0	0	511	1	
11	0	0	0	0	512	1	
12	0	0	0	0	510	1	
13	0	0	0	0	508	1	
14	0	0	0	0	511	1	
15	0	0	0	0	511	1	
0	0	0	0	0	510	1	
1	0	0	0	0	508	2	
2	0	0	0	0	509	1	
3	0	0	0	0	510	1	
4	0	0	0	0	510	1	
5	0	0	0	0	511	1	
6	0	0	0	0	508	1	
7	0	0	0	0	508	1	
8	0	0	0	0	510	1	
9	0	0	0	0	507	2	
10	0	0	0	0	511	1	
11	0	0	0	0	510	1	
12	0	0	0	0	509	1	
13	0	0	0	0	509	1	
14	0	0	0	0	511	1	
15	0	0	0	0	508	1	
0	0	0	0	0	510	1	
1	0	0	0	0	513	2	
2	0	0	0	0	512	1	
3	0	0	0	0	511	1	
4	0	0	0	0	508	1	
5	0	0	0	0	508	1	
6	0	0	0	0	510	1	
7	0	0	0	0	509	1	
8	0	0	0	0	508	2	
9	0	0	0	0	508	3	
10	0	0	0	0	510	1	
11	0	0	0	0	510	1	
12	0	0	0	0	508	1	
13	0	0	0	0	509	1	
14	0	0	0	0	510	1	
15	0	0	0	0	510	1	
0	0	0	0	0	510	1	
1	0	0	0	0	510	3	
2	0	0	0	0	508	1	
3	0	0	0	0	507	1	
4	0	0	0	0	510	1	
5	0	0	0	0	512	1	
6	0	0	0	0	511	1	
7	0	0	0	0	509	1	
8	0	0	0	0	508	2	
9	0	0	0	0	508	3	
10	0	0	0	0	510	1	
11	0	0	0	0	507	1	
12	0	0	0	0	508	1	
13	0	0	0	0	509	1	
14	0	0	0	0	510	1	
15	0	0	0	0	511	1	
0	0	0	0	0	511	2	
1	0	0	0	0	511	3	
2	0	0	0	0	509	1	
3	0	0	0	0	511	1	
4	0	0	0	0	508	1	
5	0	0	0	0	508	1	
6	0	0	0	0	510	1	
7	0	0	0	0	510	1	
8	0	0	0	0	511	1	
9	0	0	0	0	510	3	
10	0	0	0	0	508	1	
11	0	0	0	0	511	1	
12	0	0	0	0	509	1	
13	0	0	0	0	510	1	
14	0	0	0	0	509	1	
15	0	0	0	0	509	1	
0	0	0	0	0	511	2	
1	0	0	0	0	512	3	
2	0	0	0	0	510	1	
3	0	0	0	0	510	1	
4	0	0	0	0	510	1	
5	0	0	0	0	511	1	
6	0	0	0	0	510	1	
7	0	0	0	0	509	1	
8	0	0	0	0	511	2	
9	0	0	0	0	511	3	
10	0	0	0	0	509	1	
11	0	0	0	0	509	1	
12	0	0	0	0	511	1	
13	0	0	0	0	511	1	
14	0	0	0	0	504	1	
15	0	0	0	0	508	1	
0	0	0	0	0	510	2	
1	0	0	0	0	508	3	
2	0	0	0	0	509	1	
3	0	0	0	0	509	1	
4	0	0	0	0	509	1	
5	0	0	0	0	511	1	
6	0	0	0	0	511	1	
7	0	0	0	0	510	1	
8	0	0	0	0	509	2	
9	0	0	0	0	510	3	
10	0	0	0	0	510	1	
11	0	0	0	0	510	1	
12	0	0	0	0	509	1	
13	0	0	0	0	508	1	
14	0	0	0	0	507	1	
15	0	0	0	0	511	1	
0	0	0	0	0	511	2	
1	0	0	0	0	512	3	
2	0	0	0	0	509	1	
3	0	0	0	0	508	1	
4	0	0	0	0	509	1	
5	0	0	0	0	512	1	
6	0	0	0	0	513	1	
7	0	0	0	0	511	1	
8	0	0	0	0	508	1	
9	0	0	0	0	508	3	
10	0	0	0	0	510	1	
11	0	0	0	0	508	1	
12	0	0	0	0	508	1	
13	0	0	0	0	511	1	
14	0	0	0	0	514	1	
15	0	0	0	0	513	1	
0	0	0	0	0	512	2	
1	0	0	0	0	509	2	
2	0	0	0	0	510	1	
3	0	0	0	0	506	1	
4	0	0	0	0	507	1	
5	0	0	0	0	508	1	
6	0	0	0	0	507	1	
7	0	0	0	0	509	1	
8	0	0	0	0	508	1	
9	0	0	0	0	511	2	
10	0	0	0	0	510	1	
11	0	0	0	0	511	1	
12	0	0	0	0	510	1	
13	0	0	0	0	507	1	
14	0	0	0	0	508	1	
15	0	0	0	0	510	1	
0	0	0	0	0	510	1	
1	0	0	0	0	508	3	
2	0	0	0	0	511	1	
3	0	0	0	0	509	1	
4	0	0	0	0	512	1	
5	0	0	0	0	511	1	
6	0	0	0	0	509	1	
7	0	0	0	0	508	1	
8	0	0	0	0	508	2	
9	0	0	0	0	509	3	
10	0	0	0	0	512	1	
11	0	0	0	0	509	1	
12	0	0	0	0	512	1	
13	0	0	0	0	508	1	
14	0	0	0	0	510	1	
15	0	0	0	0	507	1	
0	0	0	0	0	508	2	
1	0	0	0	0	510	3	
2	0	0	0	0	511	1	
3	0	0	0	0	511	1	
4	0	0	0	0	508	1	
5	0	0	0	0	509	1	
6	0	0	0	0	509	1	
7	0	0	0	0	511	1	
8	0	0	0	0	508	1	
9	0	0	0	0	508	3	
10	0	0	0	0	511	1	
11	0	0	0	0	511	1	
12	0	0	0	0	512	1	
13	0	0	0	0	512	1	
14	0	0	0	0	510	1	
15	0	0	0	0	510	1	
0	0	0	0	0	508	2	
1	0	0	0	0	511	3	
2	0	0	0	0	508	1	
3	0	0	0	0	511	1	
4	0	0	0	0	510	1	
5	0	0	0	0	511	1	
6	0	0	0	0	508	1	
7	0	0	0	0	507	1	
8	0	0	0	0	509	2	
9	0	0	0	0	510	3	
10	0	0	0	0	511	1	
11	0	0	0	0	510	1	
12	0	0	0	0	512	1	
13	0	0	0	0	510	1	
14	0	0	0	0	508	1	
15	0	0	0	0	510	1	
0	0	0	0	0	508	2	
1	0	0	0	0	511	3	
2	0	0	0	0	510	1	
3	0	0	0	0	510	1	
4	0	0	0	0	509	1	
5	0	0	0	0	508	1	
6	0	0	0	0	511	1	
7	0	0	0	0	510	1	
8	0	0	0	0	508	2	
9	0	0	0	0	511	3	
10	0	0	0	0	508	1	
11	0	0	0	0	507	1	
12	0	0	0	0	510	1	
13	0	0	0	0	508	1	
14	0	0	0	0	510	1	
15	0	0	0	0	512	1	
0	0	0	0	0	511	2	
1	0	0	0	0	509	3	
2	0	0	0	0	507	1	
3	0	0	0	0	504	1	
4	0	0	0	0	510	1	
5	0	0	0	0	510	1	
6	0	0	0	0	512	1	
7	0	0	0	0	513	1	
8	0	0	0	0	511	2	
9	0	0	0	0	510	3	
10	0	0	0	0	511	1	
11	0	0	0	0	508	1	
12	0	0	0	0	509	1	
13	0	0	0	0	508	1	
14	0	0	0	0	510	1	
15	0	0	0	0	509	1	
0	0	0	0	0	511	2	
1	0	0	0	0	508	3	
2	0	0	0	0	509	1	
3	0	0	0	0	509	1	
4	0	0	0	0	508	1	
5	0	0	0	0	508	1	
6	0	0	0	0	511	1	
7	0	0	0	0	513	1	
8	0	0	0	0	510	2	
9	0	0	0	0	509	2	
10	0	0	0	0	511	1	
11	0	0	0	0	511	1	
12	0	0	0	0	508	1	
13	0	0	0	0	508	1	
14	0	0	0	0	508	1	
15	0	0	0	0	512	1	
0	0	0	0	0	511	1	
1	0	0	0	0	506	2	
2	0	0	0	0	506	1	
3	0	0	0	0	509	1	
4	0	0	0	0	512	1	
5	0	0	0	0	512	1	
6	0	0	0	0	511	1	
7	0	0	0	0	511	1	
8	0	0	0	0	508	1	
9	0	0	0	0	508	2	
10	0	0	0	0	510	1	
11	0	0	0	0	510	1	
12	0	0	0	0	508	1	
13	0	0	0	0	509	1	
14	0	0	0	0	508	1	
15	0	0	0	0	510	1	
0	0	0	0	0	508	2	
1	0	0	0	0	510	3	
2	0	0	0	0	510	1	
3	0	0	0	0	512	1	
4	0	0	0	0	510	1	
5	0	0	0	0	508	1	
6	0	0	0	0	508	1	
7	0	0	0	0	510	1	
8	0	0	0	0	509	2	
9	0	0	0	0	509	3	
10	0	0	0	0	511	1	
11	0	0	0	0	509	1	
12	0	0	0	0	509	1	
13	0	0	0	0	508	1	
14	0	0	0	0	507	1	
15	0	0	0	0	506	1	
0	0	0	0	0	508	2	
1	0	0	0	0	509	3	
2	0	0	0	0	511	1	
3	0	0	0	0	512	1	
4	0	0	0	0	512	1	
5	0	0	0	0	512	1	
6	0	0	0	0	511	1	
7	0	0	0	0	510	1	
8	0	0	0	0	510	2	
9	0	0	0	0	508	3	
10	0	0	0	0	509	1	
11	0	0	0	0	510	1	
12	0	0	0	0	508	1	
13	0	0	0	0	508	1	
14	0	0	0	0	508	1	
15	0	0	0	0	510	1	
0	0	0	0	0	510	2	
1	0	0	0	0	509	3	
2	0	0	0	0	512	1	
3	0	0	0	0	509	1	
4	0	0	0	0	510	1	
5	0	0	0	0	510	1	
6	0	0	0	0	510	1	
7	0	0	0	0	512	1	
8	0	0	0	0	507	2	
9	0	0	0	0	508	3	
10	0	0	0	0	509	1	
11	0	0	0	0	510	1	
12	0	0	0	0	512	1	
13	0	0	0	0	509	1	
14	0	0	0	0	508	1	
15	0	0	0	0	508	1	
0	0	0	0	0	511	2	
1	0	0	0	0	510	3	
2	0	0	0	0	510	1	
3	0	0	0	0	511	1	
4	0	0	0	0	510	1	
5	0	0	0	0	507	1	
6	0	0	0	0	510	1	
7	0	0	0	0	509	1	
8	0	0	0	0	510	2	
9	0	0	0	0	511	3	
10	0	0	0	0	509	1	
11	0	0	0	0	509	1	
12	0	0	0	0	508	1	
13	0	0	0	0	509	1	
14	0	0	0	0	509	1	
15	0	0	0	0	510	1	
0	0	0	0	0	510	2	
1	0	0	0	0	511	3	
2	0	0	0	0	511	1	
3	0	0	0	0	509	1	
4	0	0	0	0	509	1	
5	0	0	0	0	509	1	
6	0	0	0	0	508	1	
7	0	0	0	0	508	1	
8	0	0	0	0	508	1	
9	0	0	0	0	511	3	
10	0	0	0	0	512	1	
11	0	0	0	0	512	1	
12	0	0	0	0	511	1	
13	0	0	0	0	508	1	
14	0	0	0	0	510	1	
15	0	0	0	0	509	1	
0	0	0	0	0	508	2	
1	0	0	0	0	508	3	
2	0	0	0	0	508	1	
3	0	0	0	0	511	1	
4	0	0	0	0	508	1	
5	0	0	0	0	508	1	
6	0	0	0	0	511	1	
7	0	0	0	0	512	1	
8	0	0	0	0	511	1	
9	0	0	0	0	509	2	
10	0	0	0	0	510	1	
11	0	0	0	0	509	1	
12	0	0	0	0	508	1	
13	0	0	0	0	511	1	
14	0	0	0	0	510	1	
15	0	0	0	0	508	1	
0	0	0	0	0	510	1	
1	0	0	0	0	510	2	
2	0	0	0	0	510	1	
3	0	0	0	0	511	1	
4	0	0	0	0	510	1	
5	0	0	0	0	509	1	
6	0	0	0	0	509	1	
7	0	0	0	0	508	1	
8	0	0	0	0	511	1	
9	0	0	0	0	510	2	
10	0	0	0	0	513	1	
11	0	0	0	0	510	1	
12	0	0	0	0	508	1	
13	0	0	0	0	510	1	
14	0	0	0	0	511	1	
15	0	0	0	0	509	1	
0	0	0	0	0	510	2	
1	0	0	0	0	510	3	
2	0	0	0	0	508	1	
3	0	0	0	0	509	1	
4	0	0	0	0	510	1	
5	0	0	0	0	508	1	
6	0	0	0	0	510	1	
7	0	0	0	0	512	1	
8	0	0	0	0	510	2	
9	0	0	0	0	510	3	
10	0	0	0	0	510	1	
11	0	0	0	0	508	1	
12	0	0	0	0	508	1	
13	0	0	0	0	511	1	
14	0	0	0	0	511	1	
15	0	0	0	0	510	1	
0	0	0	0	0	510	2	
1	0	0	0	0	508	3	
2	0	0	0	0	510	1	
3	0	0	0	0	509	1	
4	0	0	0	0	508	1	
5	0	0	0	0	510	1	
6	0	0	0	0	509	1	
7	0	0	0	0	510	1	
8	0	0	0	0	511	2	
9	0	0	0	0	509	3	
10	0	0	0	0	510	2	
11	0	0	0	0	510	1	
12	0	0	0	0	509	1	
13	0	0	0	0	511	1	
14	0	0	0	0	510	1	
15	0	0	0	0	508	1	
0	0	0	0	0	508	1	
1	0	0	0	0	510	3	
2	0	0	0	0	511	1	
3	0	0	0	0	510	1	
4	0	0	0	0	509	1	
5	0	0	0	0	509	1	
6	0	0	0	0	511	1	
7	0	0	0	0	508	1	
8	0	0	0	0	511	2	
9	0	0	0	0	510	3	
10	0	0	0	0	509	1	
11	0	0	0	0	510	1	
12	0	0	0	0	510	1	
13	0	0	0	0	509	1	
14	0	0	0	0	508	1	
15	0	0	0	0	512	1	
0	0	0	0	0	510	2	
1	0	0	0	0	507	3	
2	0	0	0	0	509	1	
3	0	0	0	0	511	1	
4	0	0	0	0	509	1	
5	0	0	0	0	510	1	
6	0	0	0	0	511	1	
7	0	0	0	0	510	1	
8	0	0	0	0	510	2	
9	0	0	0	0	508	3	
10	0	0	0	0	511	1	
11	0	0	0	0	510	1	
12	0	0	0	0	508	1	
13	0	0	0	0	510	1	
14	0	0	0	0	509	1	
15	0	0	0	0	508	1	
0	0	0	0	0	513	1	
1	0	0	0	0	508	3	
2	0	0	0	0	508	1	
3	0	0	0	0	511	1	
4	0	0	0	0	510	1	
5	0	0	0	0	510	1	
6	0	0	0	0	511	1	
7	0	0	0	0	510	1	
8	0	0	0	0	510	2	
9	0	0	0	0	509	3	
10	0	0	0	0	505	1	
11	0	0	0	0	511	1	
12	0	0	0	0	510	1	
13	0	0	0	0	511	1	
14	0	0	0	0	510	1	
15	0	0	0	0	510	1	
0	0	0	0	0	506	1	
1	0	0	0	0	508	3	
2	0	0	0	0	511	1	
3	0	0	0	0	511	1	
4	0	0	0	0	510	1	
5	0	0	0	0	509	1	
6	0	0	0	0	510	1	
7	0	0	0	0	510	1	
8	0	0	0	0	510	1	
9	0	0	0	0	509	2	
10	0	0	0	0	510	1	
11	0	0	0	0	509	1	
12	0	0	0	0	509	1	
13	0	0	0	0	510	1	
14	0	0	0	0	511	1	
15	0	0	0	0	511	1	
0	0	0	0	0	510	1	
1	0	0	0	0	511	2	
2	0	0	0	0	508	1	
3	0	0	0	0	510	1	
4	0	0	0	0	510	1	
5	0	0	0	0	509	1	
6	0	0	0	0	510	1	
7	0	0	0	0	507	1	
8	0	0	0	0	507	1	
9	0	0	0	0	510	3	
10	0	0	0	0	511	1	
11	0	0	0	0	510	1	
12	0	0	0	0	512	1	
13	0	0	0	0	510	1	
14	0	0	0	0	509	1	
15	0	0	0	0	510	1	
0	0	0	0	0	509	1	
1	0	0	0	0	511	3	
2	0	0	0	0	510	1	
3	0	0	0	0	511	1	
4	0	0	0	0	508	1	
5	0	0	0	0	509	1	
6	0	0	0	0	509	1	
7	0	0	0	0	509	1	
8	0	0	0	0	510	2	
9	0	0	0	0	510	3	
10	0	0	0	0	508	1	
11	0	0	0	0	509	1	
12	0	0	0	0	507	1	
13	0	0	0	0	511	1	
14	0	0	0	0	510	1	
15	0	0	0	0	511	1	
0	0	0	0	0	509	2	
1	0	0	0	0	509	3	
2	0	0	0	0	510	1	
3	0	0	0	0	510	1	
4	0	0	0	0	509	1	
5	0	0	0	0	511	1	
6	0	0	0	0	510	1	
7	0	0	0	0	512	1	
8	0	0	0	0	508	2	
9	0	0	0	0	507	3	
10	0	0	0	0	508	1	
11	0	0	0	0	510	1	
12	0	0	0	0	510	1	
13	0	0	0	0	514	1	
14	0	0	0	0	511	1	
15	0	0	0	0	511	1	
0	0	0	0	0	508	1	
1	0	0	0	0	509	3	
2	0	0	0	0	511	1	
3	0	0	0	0	510	1	
4	0	0	0	0	510	1	
5	0	0	0	0	508	1	
6	0	0	0	0	508	1	
7	0	0	0	0	509	1	
8	0	0	0	0	510	2	
9	0	0	0	0	509	3	
10	0	0	0	0	511	1	
11	0	0	0	0	509	1	
12	0	0	0	0	507	1	
13	0	0	0	0	508	1	
14	0	0	0	0	511	1	
15	0	0	0	0	512	1	
0	0	0	0	0	510	2	
1	0	0	0	0	510	3	
2	0	0	0	0	508	1	
3	0	0	0	0	509	1	
4	0	0	0	0	507	1	
5	0	0	0	0	508	1	
6	0	0	0	0	510	1	
7	0	0	0	0	509	1	
8	0	0	0	0	511	2	
9	0	0	0	0	512	3	
10	0	0	0	0	511	1	
11	0	0	0	0	509	1	
12	0	0	0	0	508	1	
13	0	0	0	0	509	1	
14	0	0	0	0	512	1	
15	0	0	0	0	511	1	
0	0	0	0	0	509	2	
1	0	0	0	0	509	3	
2	0	0	0	0	508	1	
3	0	0	0	0	508	1	
4	0	0	0	0	509	1	
5	0	0	0	0	508	1	
6	0	0	0	0	510	1	
7	0	0	0	0	512	1	
8	0	0	0	0	511	2	
9	0	0	0	0	507	3	
10	0	0	0	0	509	1	
11	0	0	0	0	510	1	
12	0	0	0	0	509	1	
13	0	0	0	0	510	1	
14	0	0	0	0	509	1	
15	0	0	0	0	510	1	
0	0	0	0	0	509	2	
1	0	0	0	0	510	2	
2	0	0	0	0	511	1	
3	0	0	0	0	510	1	
4	0	0	0	0	510	1	
5	0	0	0	0	510	1	
6	0	0	0	0	508	1	
7	0	0	0	0	507	1	
8	0	0	0	0	508	1	
9	0	0	0	0	512	2	
10	0	0	0	0	511	1	
11	0	0	0	0	511	1	
12	0	0	0	0	509	1	
13	0	0	0	0	508	1	
14	0	0	0	0	507	1	
15	0	0	0	0	509	1	
0	0	0	0	0	512	1	
1	0	0	0	0	509	2	
2	0	0	0	0	510	1	
3	0	0	0	0	511	1	
4	0	0	0	0	508	1	
5	0	0	0	0	509	1	
6	0	0	0	0	509	1	
7	0	0	0	0	512	1	
8	0	0	0	0	509	2	
9	0	0	0	0	509	3	
10	0	0	0	0	512	1	
11	0	0	0	0	513	1	
12	0	0	0	0	512	1	
13	0	0	0	0	507	1	
14	0	0	0	0	508	1	
15	0	0	0	0	508	1	
0	0	0	0	0	509	2	
1	0	0	0	0	510	3	
2	0	0	0	0	510	1	
3	0	0	0	0	511	1	
4	0	0	0	0	512	1	
5	0	0	0	0	511	1	
6	0	0	0	0	508	1	
7	0	0	0	0	508	1	
8	0	0	0	0	510	2	
9	0	0	0	0	509	3	
10	0	0	0	0	508	1	
11	0	0	0	0	511	1	
12	0	0	0	0	510	1	
13	0	0	0	0	508	1	
14	0	0	0	0	508	1	
15	0	0	0	0	509	1	
0	0	0	0	0	508	2	
1	0	0	0	0	511	3	
2	0	0	0	0	509	1	
3	0	0	0	0	511	1	
4	0	0	0	0	511	1	
5	0	0	0	0	509	1	
6	0	0	0	0	511	1	
7	0	0	0	0	509	1	
8	0	0	0	0	510	2	
9	0	0	0	0	508	3	
10	0	0	0	0	511	1	
11	0	0	0	0	510	1	
12	0	0	0	0	508	1	
13	0	0	0	0	510	1	
14	0	0	0	0	510	1	
15	0	0	0	0	508	1	
0	0	0	0	0	509	2	
1	0	0	0	0	511	3	
2	0	0	0	0	510	1	
3	0	0	0	0	511	1	
4	0	0	0	0	510	1	
5	0	0	0	0	511	1	
6	0	0	0	0	511	1	
7	0	0	0	0	510	1	
8	0	0	0	0	507	1	
9	0	0	0	0	511	3	
10	0	0	0	0	509	1	
11	0	0	0	0	508	1	
12	0	0	0	0	508	1	
13	0	0	0	0	510	1	
14	0	0	0	0	510	1	
15	0	0	0	0	508	1	
0	0	0	0	0	508	2	
1	0	0	0	0	509	3	
2	0	0	0	0	510	2	
3	0	0	0	0	510	1	
4	0	0	0	0	510	1	
5	0	0	0	0	511	1	
6	0	0	0	0	512	1	
7	0	0	0	0	510	1	
8	0	0	0	0	510	2	
9	0	0	0	0	510	3	
10	0	0	0	0	507	1	
11	0	0	0	0	507	1	
12	0	0	0	0	510	1	
13	0	0	0	0	512	1	
14	0	0	0	0	514	1	
15	0	0	0	0	510	1	
0	0	0	0	0	511	2	
1	0	0	0	0	510	3	
2	0	0	0	0	509	1	
3	0	0	0	0	509	1	
4	0	0	0	0	507	1	
5	0	0	0	0	513	1	
6	0	0	0	0	510	1	
7	0	0	0	0	510	1	
8	0	0	0	0	509	2	
9	0	0	0	0	508	3	
10	0	0	0	0	510	1	
11	0	0	0	0	510	1	
12	0	0	0	0	510	1	
13	0	0	0	0	508	1	
14	0	0	0	0	507	1	
15	0	0	0	0	509	1	
0	0	0	0	0	511	1	
1	0	0	0	0	508	2	
2	0	0	0	0	509	1	
3	0	0	0	0	509	1	
4	0	0	0	0	511	1	
5	0	0	0	0	508	1	
6	0	0	0	0	510	2	
7	0	0	0	0	508	1	
8	0	0	0	0	508	1	
9	0	0	0	0	510	2	
10	0	0	0	0	511	1	
11	0	0	0	0	510	1	
12	0	0	0	0	511	1	
13	0	0	0	0	511	1	
14	0	0	0	0	508	1	
15	0	0	0	0	508	1	
0	0	0	0	0	510	1	
1	0	0	0	0	511	2	
2	0	0	0	0	511	1	
3	0	0	0	0	513	1	
4	0	0	0	0	508	1	
5	0	0	0	0	506	1	
6	0	0	0	0	507	1	
7	0	0	0	0	507	1	
8	0	0	0	0	510	2	
9	0	0	0	0	511	3	
10	0	0	0	0	511	1	
11	0	0	0	0	510	1	
12	0	0	0	0	512	1	
13	0	0	0	0	508	1	
14	0	0	0	0	506	1	
15	0	0	0	0	507	1	
0	0	0	0	0	511	2	
1	0	0	0	0	510	3	
2	0	0	0	0	508	1	
3	0	0	0	0	510	1	
4	0	0	0	0	510	1	
5	0	0	0	0	511	1	
6	0	0	0	0	508	1	
7	0	0	0	0	510	1	
8	0	0	0	0	510	2	
9	0	0	0	0	511	3	
10	0	0	0	0	513	1	
11	0	0	0	0	512	1	
12	0	0	0	0	509	1	
13	0	0	0	0	507	1	
14	0	0	0	0	508	1	
15	0	0	0	0	510	1	
0	0	0	0	0	508	2	
1	0	0	0	0	509	3	
2	0	0	0	0	511	1	
3	0	0	0	0	509	1	
4	0	0	0	0	510	1	
5	0	0	0	0	508	1	
6	0	0	0	0	511	1	
7	0	0	0	0	511	1	
8	0	0	0	0	510	2	
9	0	0	0	0	508	3	
10	0	0	0	0	509	1	
11	0	0	0	0	508	1	
12	0	0	0	0	510	1	
13	0	0	0	0	510	1	
14	0	0	0	0	510	1	
15	0	0	0	0	509	1	
0	0	0	0	0	510	2	
1	0	0	0	0	508	3	
2	0	0	0	0	510	1	
3	0	0	0	0	510	1	
4	0	0	0	0	510	1	
5	0	0	0	0	508	1	
6	0	0	0	0	508	1	
7	0	0	0	0	510	1	
8	0	0	0	0	511	2	
9	0	0	0	0	510	3	
10	0	0	0	0	511	1	
11	0	0	0	0	508	1	
12	0	0	0	0	508	1	
13	0	0	0	0	510	1	
14	0	0	0	0	511	1	
15	0	0	0	0	510	1	
0	0	0	0	0	508	2	
1	0	0	0	0	510	3	
2	0	0	0	0	507	1	
3	0	0	0	0	509	1	
4	0	0	0	0	512	1	
5	0	0	0	0	511	1	
6	0	0	0	0	511	1	
7	0	0	0	0	507	1	
8	0	0	0	0	508	1	
9	0	0	0	0	510	3	
10	0	0	0	0	512	1	
11	0	0	0	0	510	1	
12	0	0	0	0	511	1	
13	0	0	0	0	505	1	
14	0	0	0	0	508	1	
15	0	0	0	0	508	1	
0	0	0	0	0	510	2	
1	0	0	0	0	512	3	
2	0	0	0	0	510	1	
3	0	0	0	0	511	1	
4	0	0	0	0	510	1	
5	0	0	0	0	508	1	
6	0	0	0	0	509	2	
7	0	0	0	0	508	1	
8	0	0	0	0	508	2	
9	0	0	0	0	507	3	
10	0	0	0	0	511	1	
11	0	0	0	0	511	1	
12	0	0	0	0	509	1	
13	0	0	0	0	511	1	
14	0	0	0	0	511	1	
15	0	0	0	0	511	1	
0	0	0	0	0	508	1	
1	0	0	0	0	510	2	
2	0	0	0	0	511	1	
3	0	0	0	0	511	1	
4	0	0	0	0	512	1	
5	0	0	0	0	510	1	
6	0	0	0	0	510	1	
7	0	0	0	0	506	1	
8	0	0	0	0	510	1	
9	0	0	0	0	512	2	
10	0	0	0	0	511	2	
11	0	0	0	0	508	1	
12	0	0	0	0	507	1	
13	0	0	0	0	507	1	
14	0	0	0	0	508	1	
15	0	0	0	0	510	1	
0	0	0	0	0	511	1	
1	0	0	0	0	509	3	
2	0	0	0	0	508	1	
3	0	0	0	0	506	1	
4	0	0	0	0	510	1	
5	0	0	0	0	511	1	
6	0	0	0	0	511	1	
7	0	0	0	0	508	1	
8	0	0	0	0	511	2	
9	0	0	0	0	510	3	
10	0	0	0	0	510	1	
11	0	0	0	0	509	1	
12	0	0	0	0	511	1	
13	0	0	0	0	508	1	
14	0	0	0	0	511	1	
15	0	0	0	0	512	1	
0	0	0	0	0	510	2	
1	0	0	0	0	511	3	
2	0	0	0	0	508	1	
3	0	0	0	0	509	1	
4	0	0	0	0	509	1	
5	0	0	0	0	511	1	
6	0	0	0	0	509	1	
7	0	0	0	0	507	1	
8	0	0	0	0	510	2	
9	0	0	0	0	510	3	
10	0	0	0	0	511	1	
11	0	0	0	0	511	1	
12	0	0	0	0	511	1	
13	0	0	0	0	508	1	
14	0	0	0	0	508	1	
15	0	0	0	0	511	1	
0	0	0	0	0	511	2	
1	0	0	0	0	509	3	
2	0	0	0	0	509	1	
3	0	0	0	0	510	1	
4	0	0	0	0	511	1	
5	0	0	0	0	508	1	
6	0	0	0	0	509	1	
7	0	0	0	0	508	1	
8	0	0	0	0	509	2	
9	0	0	0	0	513	3	
10	0	0	0	0	508	1	
11	0	0	0	0	507	1	
12	0	0	0	0	511	1	
13	0	0	0	0	512	1	
14	0	0	0	0	510	1	
15	0	0	0	0	508	1	
0	0	0	0	0	510	2	
1	0	0	0	0	511	3	
2	0	0	0	0	512	1	
3	0	0	0	0	510	1	
4	0	0	0	0	506	1	
5	0	0	0	0	510	1	
6	0	0	0	0	510	2	
7	0	0	0	0	508	1	
8	0	0	0	0	508	2	
9	0	0	0	0	508	3	
10	0	0	0	0	510	1	
11	0	0	0	0	511	2	
12	0	0	0	0	511	1	
13	0	0	0	0	510	1	
14	0	0	0	0	508	1	
15	0	0	0	0	508	1	
0	0	0	0	0	508	2	
1	0	0	0	0	511	3	
2	0	0	0	0	511	1	
3	0	0	0	0	512	1	
4	0	0	0	0	511	1	
5	0	0	0	0	510	1	
6	0	0	0	0	510	1	
7	0	0	0	0	509	1	
8	0	0	0	0	508	2	
9	0	0	0	0	511	3	
10	0	0	0	0	510	1	
11	0	0	0	0	509	1	
12	0	0	0	0	506	1	
13	0	0	0	0	510	1	
14	0	0	0	0	510	1	
15	0	0	0	0	511	1	
0	0	0	0	0	507	1	
1	0	0	0	0	509	3	
2	0	0	0	0	508	1	
3	0	0	0	0	508	1	
4	0	0	0	0	510	1	
5	0	0	0	0	511	1	
6	0	0	0	0	508	1	
7	0	0	0	0	511	1	
8	0	0	0	0	510	1	
9	0	0	0	0	510	2	
10	0	0	0	0	511	1	
11	0	0	0	0	510	1	
12	0	0	0	0	509	1	
13	0	0	0	0	508	1	
14	0	0	0	0	509	1	
15	0	0	0	0	510	1	
0	0	0	0	0	508	1	
1	0	0	0	0	510	2	
2	0	0	0	0	510	1	
3	0	0	0	0	507	1	
4	0	0	0	0	511	1	
5	0	0	0	0	510	1	
6	0	0	0	0	508	1	
7	0	0	0	0	510	1	
8	0	0	0	0	511	1	
9	0	0	0	0	510	2	
10	0	0	0	0	510	1	
11	0	0	0	0	510	1	
12	0	0	0	0	509	1	
13	0	0	0	0	508	1	
14	0	0	0	0	509	1	
15	0	0	0	0	508	1	
0	0	0	0	0	508	1	
1	0	0	0	0	508	3	
2	0	0	0	0	511	1	
3	0	0	0	0	511	1	
4	0	0	0	0	511	1	
5	0	0	0	0	511	1	
6	0	0	0	0	507	1	
7	0	0	0	0	510	1	
8	0	0	0	0	512	2	
9	0	0	0	0	510	3	
10	0	0	0	0	511	1	
11	0	0	0	0	508	1	
12	0	0	0	0	504	1	
13	0	0	0	0	509	1	
14	0	0	0	0	510	1	
15	0	0	0	0	509	1	
0	0	0	0	0	509	2	
1	0	0	0	0	510	3	
2	0	0	0	0	510	1	
3	0	0	0	0	511	1	
4	0	0	0	0	509	1	
5	0	0	0	0	511	1	
6	0	0	0	0	508	1	
7	0	0	0	0	508	1	
8	0	0	0	0	510	1	
9	0	0	0	0	511	3	
10	0	0	0	0	512	1	
11	0	0	0	0	512	1	
12	0	0	0	0	512	1	
13	0	0	0	0	510	1	
14	0	0	0	0	509	1	
15	0	0	0	0	505	1	
0	0	0	0	0	506	1	
1	0	0	0	0	510	3	
2	0	0	0	0	511	1	
3	0	0	0	0	508	1	
4	0	0	0	0	508	1	
5	0	0	0	0	510	1	
6	0	0	0	0	511	1	
7	0	0	0	0	511	1	
8	0	0	0	0	510	2	
9	0	0	0	0	510	3	
10	0	0	0	0	512	1	
11	0	0	0	0	510	1	
12	0	0	0	0	510	1	
13	0	0	0	0	511	1	
14	0	0	0	0	509	1	
15	0	0	0	0	509	1	
0	0	0	0	0	510	2	
1	0	0	0	0	507	3	
2	0	0	0	0	511	1	
3	0	0	0	0	510	1	
4	0	0	0	0	506	1	
5	0	0	0	0	510	1	
6	0	0	0	0	511	1	
7	0	0	0	0	508	1	
8	0	0	0	0	509	2	
9	0	0	0	0	508	3	
10	0	0	0	0	510	1	
11	0	0	0	0	510	1	
12	0	0	0	0	511	1	
13	0	0	0	0	508	1	
14	0	0	0	0	508	1	
15	0	0	0	0	510	1	
0	0	0	0	0	507	2	
1	0	0	0	0	510	3	
2	0	0	0	0	512	1	
3	0	0	0	0	511	1	
4	0	0	0	0	509	1	
5	0	0	0	0	507	1	
6	0	0	0	0	510	1	
7	0	0	0	0	510	1	
8	0	0	0	0	508	2	
9	0	0	0	0	510	3	
10	0	0	0	0	510	1	
11	0	0	0	0	511	1	
12	0	0	0	0	512	1	
13	0	0	0	0	510	1	
14	0	0	0	0	510	1	
15	0	0	0	0	508	1	
0	0	0	0	0	511	2	
1	0	0	0	0	511	3	
2	0	0	0	0	508	1	
3	0	0	0	0	510	1	
4	0	0	0	0	510	1	
5	0	0	0	0	508	1	
6	0	0	0	0	508	1	
7	0	0	0	0	506	1	
8	0	0	0	0	510	1	
9	0	0	0	0	509	2	
10	0	0	0	0	508	1	
11	0	0	0	0	511	1	
12	0	0	0	0	510	1	
13	0	0	0	0	508	1	
14	0	0	0	0	510	1	
15	0	0	0	0	510	1	
0	0	0	0	0	511	1	
1	0	0	0	0	509	2	
2	0	0	0	0	510	1	
3	0	0	0	0	510	1	
4	0	0	0	0	508	1	
5	0	0	0	0	511	1	
6	0	0	0	0	510	1	
7	0	0	0	0	510	1	
8	0	0	0	0	509	1	
9	0	0	0	0	511	2	
10	0	0	0	0	512	1	
11	0	0	0	0	511	1	
12	0	0	0	0	511	1	
13	0	0	0	0	509	1	
14	0	0	0	0	509	1	
15	0	0	0	0	508	1	
0	0	0	0	0	511	2	
1	0	0	0	0	511	3	
2	0	0	0	0	510	1	
3	0	0	0	0	510	1	
4	0	0	0	0	511	1	
5	0	0	0	0	507	1	
6	0	0	0	0	508	1	
7	0	0	0	0	508	1	
8	0	0	0	0	510	2	
9	0	0	0	0	511	3	
10	0	0	0	0	512	1	
11	0	0	0	0	508	1	
12	0	0	0	0	509	1	
13	0	0	0	0	511	1	
14	0	0	0	0	511	1	
15	0	0	0	0	509	1	
0	0	0	0	0	509	2	
1	0	0	0	0	508	3	
2	0	0	0	0	507	1	
3	0	0	0	0	510	1	
4	0	0	0	0	511	1	
5	0	0	0	0	510	1	
6	0	0	0	0	511	1	
7	0	0	0	0	510	1	
8	0	0	0	0	510	2	
9	0	0	0	0	509	3	
10	0	0	0	0	510	1	
11	0	0	0	0	510	1	
12	0	0	0	0	512	1	
13	0	0	0	0	508	1	
14	0	0	0	0	504	1	
15	0	0	0	0	508	1	
0	0	0	0	0	511	2	
1	0	0	0	0	508	3	
2	0	0	0	0	510	1	
3	0	0	0	0	510	1	
4	0	0	0	0	510	1	
5	0	0	0	0	510	1	
6	0	0	0	0	510	1	
7	0	0	0	0	509	1	
8	0	0	0	0	510	2	
9	0	0	0	0	510	3	
10	0	0	0	0	509	1	
11	0	0	0	0	509	1	
12	0	0	0	0	510	1	
13	0	0	0	0	508	1	
14	0	0	0	0	511	1	
15	0	0	0	0	511	1	
0	0	0	0	0	512	2	
1	0	0	0	0	511	3	
2	0	0	0	0	510	1	
3	0	0	0	0	508	1	
4	0	0	0	0	506	1	
5	0	0	0	0	508	1	
6	0	0	0	0	510	1	
7	0	0	0	0	509	1	
8	0	0	0	0	505	2	
9	0	0	0	0	508	3	
10	0	0	0	0	510	1	
11	0	0	0	0	511	1	
12	0	0	0	0	510	1	
13	0	0	0	0	513	1	
14	0	0	0	0	512	1	
15	0	0	0	0	510	1	
0	0	0	0	0	508	2	
1	0	0	0	0	508	3	
2	0	0	0	0	509	1	
3	0	0	0	0	510	1	
4	0	0	0	0	510	1	
5	0	0	0	0	511	1	
6	0	0	0	0	507	1	
7	0	0	0	0	510	1	
8	0	0	0	0	511	2	
9	0	0	0	0	510	3	
10	0	0	0	0	508	1	
11	0	0	0	0	508	1	
12	0	0	0	0	511	1	
13	0	0	0	0	509	1	
14	0	0	0	0	508	1	
15	0	0	0	0	507	1	
0	0	0	0	0	509	2	
1	0	0	0	0	509	3	
2	0	0	0	0	508	1	
3	0	0	0	0	512	1	
4	0	0	0	0	510	1	
5	0	0	0	0	509	1	
6	0	0	0	0	509	1	
7	0	0	0	0	510	1	
8	0	0	0	0	511	1	
9	0	0	0	0	510	2	
10	0	0	0	0	511	1	
11	0	0	0	0	510	1	
12	0	0	0	0	510	1	
13	0	0	0	0	508	1	
14	0	0	0	0	510	1	
15	0	0	0	0	513	1	
0	0	0	0	0	508	1	
1	0	0	0	0	509	2	
2	0	0	0	0	511	1	
3	0	0	0	0	510	1	
4	0	0	0	0	510	1	
5	0	0	0	0	508	1	
6	0	0	0	0	508	1	
7	0	0	0	0	508	1	
8	0	0	0	0	509	2	
9	0	0	0	0	508	3	
10	0	0	0	0	510	1	
11	0	0	0	0	510	1	
12	0	0	0	0	510	1	
13	0	0	0	0	511	1	
14	0	0	0	0	509	1	
15	0	0	0	0	510	1	
0	0	0	0	0	510	1	
1	0	0	0	0	510	3	
2	0	0	0	0	510	1	
3	0	0	0	0	508	1	
4	0	0	0	0	510	1	
5	0	0	0	0	510	1	
6	0	0	0	0	511	1	
7	0	0	0	0	511	1	
8	0	0	0	0	510	2	
9	0	0	0	0	509	3	
10	0	0	0	0	511	1	
11	0	0	0	0	510	1	
12	0	0	0	0	511	1	
13	0	0	0	0	511	1	
14	0	0	0	0	511	1	
15	0	0	0	0	509	1	
0	0	0	0	0	508	2	
1	0	0	0	0	508	3	
2	0	0	0	0	508	1	
3	0	0	0	0	512	1	
4	0	0	0	0	512	1	
5	0	0	0	0	508	1	
6	0	0	0	0	508	1	
7	0	0	0	0	509	1	
8	0	0	0	0	510	2	
9	0	0	0	0	506	3	
10	0	0	0	0	508	1	
11	0	0	0	0	508	1	
12	0	0	0	0	508	1	
13	0	0	0	0	507	1	
14	0	0	0	0	512	1	
15	0	0	0	0	511	1	
0	0	0	0	0	514	2	
1	0	0	0	0	509	3	
2	0	0	0	0	508	1	
3	0	0	0	0	509	1	
4	0	0	0	0	511	1	
5	0	0	0	0	511	1	
6	0	0	0	0	509	1	
7	0	0	0	0	511	1	
8	0	0	0	0	509	2	
9	0	0	0	0	507	3	
10	0	0	0	0	507	1	
11	0	0	0	0	511	1	
12	0	0	0	0	511	1	
13	0	0	0	0	510	1	
14	0	0	0	0	507	1	
15	0	0	0	0	510	1	
0	0	0	0	0	509	2	
1	0	0	0	0	511	3	
2	0	0	0	0	506	1	
3	0	0	0	0	509	1	
4	0	0	0	0	510	1	
5	0	0	0	0	509	1	
6	0	0	0	0	511	1	
7	0	0	0	0	509	1	
8	0	0	0	0	511	2	
9	0	0	0	0	511	3	
10	0	0	0	0	513	1	
11	0	0	0	0	508	1	
12	0	0	0	0	510	1	
13	0	0	0	0	512	1	
14	0	0	0	0	511	1	
15	0	0	0	0	509	1	
0	0	0	0	0	509	2	
1	0	0	0	0	507	3	
2	0	0	0	0	510	1	
3	0	0	0	0	508	1	
4	0	0	0	0	505	1	
5	0	0	0	0	508	1	
6	0	0	0	0	512	1	
7	0	0	0	0	514	2	
8	0	0	0	0	513	2	
9	0	0	0	0	512	3	
10	0	0	0	0	508	1	
11	0	0	0	0	508	1	
12	0	0	0	0	509	1	
13	0	0	0	0	508	1	
14	0	0	0	0	509	1	
15	0	0	0	0	509	1	
0	0	0	0	0	509	1	
1	0	0	0	0	509	2	
2	0	0	0	0	508	1	
3	0	0	0	0	511	1	
4	0	0	0	0	508	1	
5	0	0	0	0	509	1	
6	0	0	0	0	509	1	
7	0	0	0	0	509	1	
8	0	0	0	0	510	1	
9	0	0	0	0	510	2	
10	0	0	0	0	511	1	
11	0	0	0	0	512	1	
12	0	0	0	0	510	1	
13	0	0	0	0	511	1	
14	0	0	0	0	509	1	
15	0	0	0	0	509	1	
0	0	0	0	0	510	2	
1	0	0	0	0	509	2	
2	0	0	0	0	507	1	
3	0	0	0	0	508	1	
4	0	0	0	0	508	1	
5	0	0	0	0	506	1	
6	0	0	0	0	507	1	
7	0	0	0	0	505	1	
8	0	0	0	0	508	2	
9	0	0	0	0	511	3	
10	0	0	0	0	511	1	
11	0	0	0	0	514	1	
12	0	0	0	0	515	1	
13	0	0	0	0	514	1	
14	0	0	0	0	515	1	
15	0	0	0	0	512	1	
0	0	0	0	0	512	2	
1	0	0	0	0	510	3	
2	0	0	0	0	510	1	
3	0	0	0	0	508	1	
4	0	0	0	0	506	1	
5	0	0	0	0	504	1	
6	0	0	0	0	504	1	
7	0	0	0	0	505	1	
8	0	0	0	0	504	1	
9	0	0	0	0	505	3	
10	0	0	0	0	507	1	
11	0	0	0	0	511	1	
12	0	0	0	0	512	1	
13	0	0	0	0	516	1	
14	0	0	0	0	515	1	
15	0	0	0	0	515	1	
0	0	0	0	0	513	2	
1	0	0	0	0	515	3	
2	0	0	0	0	516	1	
3	0	0	0	0	508	1	
4	0	0	0	0	500	1	
5	0	0	0	0	499	1	
6	0	0	0	0	504	1	
7	0	0	0	0	509	1	
8	0	0	0	0	512	1	
9	0	0	0	0	516	3	
10	0	0	0	0	510	2	
11	0	0	0	0	504	1	
12	0	0	0	0	501	1	
13	0	0	0	0	503	1	
14	0	0	0	0	513	1	
15	0	0	0	0	534	2	
0	0	0	0	0	529	2	
1	0	0	0	0	514	3	
2	0	0	0	0	507	1	
3	0	0	0	0	508	1	
4	0	0	0	0	508	1	
5	0	0	0	0	508	1	
6	0	0	0	0	511	1	
7	0	0	0	0	509	1	
8	0	0	0	0	506	1	
9	0	0	0	0	504	3	
10	0	0	0	0	504	1	
11	0	0	0	0	502	1	
12	0	0	0	0	504	1	
13	0	0	0	0	505	1	
14	0	0	0	0	507	1	
15	0	0	0	0	511	1	
0	0	0	0	0	512	2	
1	0	0	0	0	512	3	
2	0	0	0	0	512	1	
3	0	0	0	0	512	1	
4	0	0	0	0	511	1	
5	0	0	0	0	509	1	
6	0	0	0	0	507	1	
7	0	0	0	0	503	1	
8	0	0	0	0	507	2	
9	0	0	0	0	510	3	
10	0	0	0	0	512	1	
11	0	0	0	0	511	1	
12	0	0	0	0	508	1	
13	0	0	0	0	509	1	
14	0	0	0	0	512	1	
15	0	0	0	0	512	1	
0	0	0	0	0	510	2	
1	0	0	0	0	508	3	
2	0	0	0	0	508	1	
3	0	0	0	0	510	1	
4	0	0	0	0	510	1	
5	0	0	0	0	508	1	
6	0	0	0	0	509	1	
7	0	0	0	0	510	1	
8	0	0	0	0	510	2	
9	0	0	0	0	510	3	
10	0	0	0	0	512	1	
11	0	0	0	0	512	1	
12	0	0	0	0	508	1	
13	0	0	0	0	510	1	
14	0	0	0	0	509	1	
15	0	0	0	0	508	1	
0	0	0	0	0	505	1	
1	0	0	0	0	507	2	
2	0	0	0	0	512	1	
3	0	0	0	0	510	1	
4	0	0	0	0	509	1	
5	0	0	0	0	508	1	
6	0	0	0	0	508	1	
7	0	0	0	0	510	1	
8	0	0	0	0	509	1	
9	0	0	0	0	504	2	
10	0	0	0	0	510	1	
11	0	0	0	0	510	1	
12	0	0	0	0	508	1	
13	0	0	0	0	511	1	
14	0	0	0	0	515	1	
15	0	0	0	0	514	1	
0	0	0	0	0	516	1	
1	0	0	0	0	511	2	
2	0	0	0	0	508	1	
3	0	0	0	0	507	1	
4	0	0	0	0	509	1	
5	0	0	0	0	508	1	
6	0	0	0	0	507	1	
7	0	0	0	0	506	1	
8	0	0	0	0	504	1	
9	0	0	0	0	505	3	
10	0	0	0	0	508	1	
11	0	0	0	0	512	1	
12	0	0	0	0	515	1	
13	0	0	0	0	515	1	
14	0	0	0	0	512	1	
15	0	0	0	0	510	1	
0	0	0	0	0	511	1	
1	0	0	0	0	512	3	
2	0	0	0	0	509	1	
3	0	0	0	0	508	1	
4	0	0	0	0	508	1	
5	0	0	0	0	513	1	
6	0	0	0	0	514	1	
7	0	0	0	0	514	1	
8	0	0	0	0	512	2	
9	0	0	0	0	509	3	
10	0	0	0	0	510	1	
11	0	0	0	0	508	1	
12	0	0	0	0	504	1	
13	0	0	0	0	507	1	
14	0	0	0	0	508	1	
15	0	0	0	0	511	1	
0	0	0	0	0	504	1	
1	0	0	0	0	505	3	
2	0	0	0	0	509	1	
3	0	0	0	0	508	1	
4	0	0	0	0	507	1	
5	0	0	0	0	508	1	
6	0	0	0	0	508	1	
7	0	0	0	0	510	1	
8	0	0	0	0	510	2	
9	0	0	0	0	511	3	
10	0	0	0	0	508	1	
11	0	0	0	0	507	1	
12	0	0	0	0	508	1	
13	0	0	0	0	509	1	
14	0	0	0	0	510	1	
15	0	0	0	0	510	1	
0	0	0	0	0	513	1	
1	0	0	0	0	513	3	
2	0	0	0	0	514	1	
3	0	0	0	0	509	1	
4	0	0	0	0	507	1	
5	0	0	0	0	507	1	
6	0	0	0	0	508	1	
7	0	0	0	0	509	1	
8	0	0	0	0	508	2	
9	0	0	0	0	508	3	
10	0	0	0	0	512	1	
11	0	0	0	0	514	1	
12	0	0	0	0	513	1	
13	0	0	0	0	515	1	
14	0	0	0	0	513	1	
15	0	0	0	0	510	1	
0	0	0	0	0	510	2	
1	0	0	0	0	507	3	
2	0	0	0	0	505	1	
3	0	0	0	0	505	1	
4	0	0	0	0	507	1	
5	0	0	0	0	507	1	
6	0	0	0	0	511	1	
7	0	0	0	0	509	1	
8	0	0	0	0	507	2	
9	0	0	0	0	503	3	
10	0	0	0	0	505	1	
11	0	0	0	0	509	1	
12	0	0	0	0	515	1	
13	0	0	0	0	516	1	
14	0	0	0	0	517	1	
15	0	0	0	0	516	1	
0	0	0	0	0	509	2	
1	0	0	0	0	508	3	
2	0	0	0	0	510	1	
3	0	0	0	0	510	1	
4	0	0	0	0	509	1	
5	0	0	0	0	512	1	
6	0	0	0	0	509	1	
7	0	0	0	0	504	1	
8	0	0	0	0	509	2	
9	0	0	0	0	507	3	
10	0	0	0	0	507	1	
11	0	0	0	0	508	1	
12	0	0	0	0	512	1	
13	0	0	0	0	511	1	
14	0	0	0	0	510	1	
15	0	0	0	0	512	1	
0	0	0	0	0	514	1	
1	0	0	0	0	512	2	
2	0	0	0	0	508	1	
3	0	0	0	0	511	1	
4	0	0	0	0	510	1	
5	0	0	0	0	507	1	
6	0	0	0	0	505	1	
7	0	0	0	0	503	1	
8	0	0	0	0	509	1	
9	0	0	0	0	510	2	
10	0	0	0	0	509	1	
11	0	0	0	0	509	1	
12	0	0	0	0	510	1	
13	0	0	0	0	510	1	
14	0	0	0	0	511	1	
15	0	0	0	0	510	1	
0	0	0	0	0	510	2	
1	0	0	0	0	509	3	
2	0	0	0	0	510	1	
3	0	0	0	0	509	1	
4	0	0	0	0	510	1	
5	0	0	0	0	508	1	
6	0	0	0	0	509	1	
7	0	0	0	0	509	1	
8	0	0	0	0	511	2	
9	0	0	0	0	512	3	
10	0	0	0	0	510	1	
11	0	0	0	0	508	1	
12	0	0	0	0	506	1	
13	0	0	0	0	506	1	
14	0	0	0	0	510	1	
15	0	0	0	0	509	1	
0	0	0	0	0	510	2	
1	0	0	0	0	510	3	
2	0	0	0	0	511	1	
3	0	0	0	0	512	1	
4	0	0	0	0	511	1	
5	0	0	0	0	508	1	
6	0	0	0	0	508	1	
7	0	0	0	0	508	1	
8	0	0	0	0	507	1	
9	0	0	0	0	515	3	
10	0	0	0	0	512	1	
11	0	0	0	0	509	1	
12	0	0	0	0	509	1	
13	0	0	0	0	508	1	
14	0	0	0	0	509	1	
15	0	0	0	0	508	1	
0	0	0	0	0	509	2	
1	0	0	0	0	511	3	
2	0	0	0	0	516	1	
3	0	0	0	0	512	1	
4	0	0	0	0	511	1	
5	0	0	0	0	508	1	
6	0	0	0	0	511	1	
7	0	0	0	0	508	1	
8	0	0	0	0	508	2	
9	0	0	0	0	510	3	
10	0	0	0	0	510	1	
11	0	0	0	0	508	1	
12	0	0	0	0	506	1	
13	0	0	0	0	509	1	
14	0	0	0	0	510	1	
15	0	0	0	0	511	1	
0	0	0	0	0	512	1	
1	0	0	0	0	511	3	
2	0	0	0	0	509	1	
3	0	0	0	0	509	1	
4	0	0	0	0	509	1	
5	0	0	0	0	510	1	
6	0	0	0	0	511	1	
7	0	0	0	0	507	1	
8	0	0	0	0	511	2	
9	0	0	0	0	512	3	
10	0	0	0	0	511	1	
11	0	0	0	0	511	1	
12	0	0	0	0	508	1	
13	0	0	0	0	505	1	
14	0	0	0	0	507	1	
15	0	0	0	0	508	1	
0	0	0	0	0	508	1	
1	0	0	0	0	505	3	
2	0	0	0	0	509	1	
3	0	0	0	0	512	1	
4	0	0	0	0	511	1	
5	0	0	0	0	509	1	
6	0	0	0	0	511	1	
7	0	0	0	0	512	1	
8	0	0	0	0	510	2	
9	0	0	0	0	511	3	
10	0	0	0	0	511	1	
11	0	0	0	0	509	1	
12	0	0	0	0	508	1	
13	0	0	0	0	509	1	
14	0	0	0	0	508	1	
15	0	0	0	0	507	1	
0	0	0	0	0	509	2	
1	0	0	0	0	510	3	
2	0	0	0	0	513	1	
3	0	0	0	0	511	1	
4	0	0	0	0	509	1	
5	0	0	0	0	510	1	
6	0	0	0	0	509	1	
7	0	0	0	0	511	1	
8	0	0	0	0	510	1	
9	0	0	0	0	509	2	
10	0	0	0	0	510	1	
11	0	0	0	0	506	1	
12	0	0	0	0	506	1	
13	0	0	0	0	509	1	
14	0	0	0	0	517	1	
15	0	0	0	0	521	1	
0	0	0	0	0	515	1	
1	0	0	0	0	505	2	
2	0	0	0	0	508	1	
3	0	0	0	0	508	1	
4	0	0	0	0	506	1	
5	0	0	0	0	505	1	
6	0	0	0	0	508	1	
7	0	0	0	0	513	1	
8	0	0	0	0	513	1	
9	0	0	0	0	512	2	
10	0	0	0	0	507	1	
11	0	0	0	0	511	1	
12	0	0	0	0	516	1	
13	0	0	0	0	516	1	
14	0	0	0	0	506	1	
15	0	0	0	0	506	1	
0	0	0	0	0	511	2	
1	0	0	0	0	507	3	
2	0	0	0	0	505	1	
3	0	0	0	0	507	1	
4	0	0	0	0	511	1	
5	0	0	0	0	511	1	
6	0	0	0	0	512	1	
7	0	0	0	0	512	1	
8	0	0	0	0	510	2	
9	0	0	0	0	509	3	
10	0	0	0	0	510	1	
11	0	0	0	0	508	1	
12	0	0	0	0	506	1	
13	0	0	0	0	506	1	
14	0	0	0	0	507	1	
15	0	0	0	0	506	1	
0	0	0	0	0	508	1	
1	0	0	0	0	510	3	
2	0	0	0	0	511	1	
3	0	0	0	0	511	1	
4	0	0	0	0	510	1	
5	0	0	0	0	508	1	
6	0	0	0	0	509	1	
7	0	0	0	0	508	1	
8	0	0	0	0	509	2	
9	0	0	0	0	510	3	
10	0	0	0	0	513	1	
11	0	0	0	0	512	1	
12	0	0	0	0	510	1	
13	0	0	0	0	506	1	
14	0	0	0	0	510	1	
15	0	0	0	0	513	1	
0	0	0	0	0	511	2	
1	0	0	0	0	510	3	
2	0	0	0	0	510	1	
3	0	0	0	0	508	1	
4	0	0	0	0	510	1	
5	0	0	0	0	509	1	
6	0	0	0	0	510	1	
7	0	0	0	0	509	1	
8	0	0	0	0	506	2	
9	0	0	0	0	508	3	
10	0	0	0	0	511	1	
11	0	0	0	0	513	1	
12	0	0	0	0	510	1	
13	0	0	0	0	509	1	
14	0	0	0	0	509	1	
15	0	0	0	0	508	1	
0	0	0	0	0	512	2	
1	0	0	0	0	511	3	
2	0	0	0	0	509	1	
3	0	0	0	0	508	1	
4	0	0	0	0	509	1	
5	0	0	0	0	509	1	
6	0	0	0	0	511	1	
7	0	0	0	0	510	1	
8	0	0	0	0	510	2	
9	0	0	0	0	509	3	
10	0	0	0	0	512	1	
11	0	0	0	0	511	1	
12	0	0	0	0	505	1	
13	0	0	0	0	507	1	
14	0	0	0	0	507	1	
15	0	0	0	0	508	1	
0	0	0	0	0	512	1	
1	0	0	0	0	510	3	
2	0	0	0	0	511	1	
3	0	0	0	0	507	1	
4	0	0	0	0	507	1	
5	0	0	0	0	506	1	
6	0	0	0	0	510	1	
7	0	0	0	0	513	1	
8	0	0	0	0	515	2	
9	0	0	0	0	514	3	
10	0	0	0	0	511	1	
11	0	0	0	0	505	1	
12	0	0	0	0	507	1	
13	0	0	0	0	508	1	
14	0	0	0	0	508	1	
15	0	0	0	0	508	1	
0	0	0	0	0	513	2	
1	0	0	0	0	511	3	
2	0	0	0	0	512	1	
3	0	0	0	0	511	1	
4	0	0	0	0	511	1	
5	0	0	0	0	509	1	
6	0	0	0	0	510	1	
7	0	0	0	0	510	1	
8	0	0	0	0	510	1	
9	0	0	0	0	512	2	
10	0	0	0	0	509	1	
11	0	0	0	0	509	1	
12	0	0	0	0	508	1	
13	0	0	0	0	509	1	
14	0	0	0	0	507	1	
15	0	0	0	0	510	1	
0	0	0	0	0	507	1	
1	0	0	0	0	508	2	
2	0	0	0	0	510	1	
3	0	0	0	0	511	1	
4	0	0	0	0	511	1	
5	0	0	0	0	508	1	
6	0	0	0	0	511	1	
7	0	0	0	0	512	1	
8	0	0	0	0	506	1	
9	0	0	0	0	507	2	
10	0	0	0	0	507	1	
11	0	0	0	0	508	1	
12	0	0	0	0	509	1	
13	0	0	0	0	509	1	
14	0	0	0	0	508	1	
15	0	0	0	0	511	1	
0	0	0	0	0	510	2	
1	0	0	0	0	510	3	
2	0	0	0	0	508	1	
3	0	0	0	0	504	1	
4	0	0	0	0	511	1	
5	0	0	0	0	513	1	
6	0	0	0	0	514	1	
7	0	0	0	0	513	1	
8	0	0	0	0	512	2	
9	0	0	0	0	508	3	
10	0	0	0	0	508	1	
11	0	0	0	0	508	1	
12	0	0	0	0	504	1	
13	0	0	0	0	502	1	
14	0	0	0	0	504	1	
15	0	0	0	0	508	1	
0	0	0	0	0	510	2	
1	0	0	0	0	526	3	
2	0	0	0	0	523	2	
3	0	0	0	0	516	1	
4	0	0	0	0	514	1	
5	0	0	0	0	512	1	
6	0	0	0	0	511	1	
7	0	0	0	0	510	1	
8	0	0	0	0	507	1	
9	0	0	0	0	504	3	
10	0	0	0	0	506	1	
11	0	0	0	0	509	1	
12	0	0	0	0	508	1	
13	0	0	0	0	509	1	
14	0	0	0	0	508	1	
15	0	0	0	0	508	1	
0	0	0	0	0	509	1	
1	0	0	0	0	508	3	
2	0	0	0	0	507	1	
3	0	0	0	0	505	1	
4	0	0	0	0	509	1	
5	0	0	0	0	511	1	
6	0	0	0	0	509	1	
7	0	0	0	0	510	1	
8	0	0	0	0	508	1	
9	0	0	0	0	507	3	
10	0	0	0	0	510	1	
11	0	0	0	0	512	1	
12	0	0	0	0	510	1	
13	0	0	0	0	508	1	
14	0	0	0	0	510	1	
15	0	0	0	0	510	1	
0	0	0	0	0	510	2	
1	0	0	0	0	506	3	
2	0	0	0	0	507	1	
3	0	0	0	0	513	1	
4	0	0	0	0	519	1	
5	0	0	0	0	514	1	
6	0	0	0	0	508	2	
7	0	0	0	0	508	1	
8	0	0	0	0	505	2	
9	0	0	0	0	504	3	
10	0	0	0	0	504	1	
11	0	0	0	0	504	1	
12	0	0	0	0	506	1	
13	0	0	0	0	510	1	
14	0	0	0	0	510	1	
15	0	0	0	0	509	1	
0	0	0	0	0	510	1	
1	0	0	0	0	510	3	
2	0	0	0	0	511	1	
3	0	0	0	0	514	1	
4	0	0	0	0	511	1	
5	0	0	0	0	508	1	
6	0	0	0	0	508	1	
7	0	0	0	0	509	1	
8	0	0	0	0	510	1	
9	0	0	0	0	510	3	
10	0	0	0	0	506	2	
11	0	0	0	0	507	1	
12	0	0	0	0	511	1	
13	0	0	0	0	511	1	
14	0	0	0	0	515	1	
15	0	0	0	0	514	1	
0	0	0	0	0	511	1	
1	0	0	0	0	510	3	
2	0	0	0	0	508	1	
3	0	0	0	0	508	1	
4	0	0	0	0	507	1	
5	0	0	0	0	508	1	
6	0	0	0	0	507	1	
7	0	0	0	0	510	1	
8	0	0	0	0	509	1	
9	0	0	0	0	511	2	
10	0	0	0	0	513	1	
11	0	0	0	0	512	1	
12	0	0	0	0	512	1	
13	0	0	0	0	508	1	
14	0	0	0	0	507	1	
15	0	0	0	0	513	1	
0	0	0	0	0	513	1	
1	0	0	0	0	511	2	
2	0	0	0	0	510	1	
3	0	0	0	0	513	1	
4	0	0	0	0	508	1	
5	0	0	0	0	506	1	
6	0	0	0	0	508	1	
7	0	0	0	0	507	1	
8	0	0	0	0	510	2	
9	0	0	0	0	506	3	
10	0	0	0	0	504	1	
11	0	0	0	0	505	1	
12	0	0	0	0	507	1	
13	0	0	0	0	509	1	
14	0	0	0	0	511	1	
15	0	0	0	0	510	1	
0	0	0	0	0	511	2	
1	0	0	0	0	511	3	
2	0	0	0	0	510	1	
3	0	0	0	0	509	1	
4	0	0	0	0	508	1	
5	0	0	0	0	511	1	
6	0	0	0	0	511	1	
7	0	0	0	0	512	1	
8	0	0	0	0	509	2	
9	0	0	0	0	512	3	
10	0	0	0	0	512	1	
11	0	0	0	0	511	1	
12	0	0	0	0	511	1	
13	0	0	0	0	509	1	
14	0	0	0	0	514	1	
15	0	0	0	0	515	1	
0	0	0	0	0	511	2	
1	0	0	0	0	511	3	
2	0	0	0	0	507	1	
3	0	0	0	0	508	1	
4	0	0	0	0	506	1	
5	0	0	0	0	505	1	
6	0	0	0	0	510	1	
7	0	0	0	0	507	1	
8	0	0	0	0	505	1	
9	0	0	0	0	505	3	
10	0	0	0	0	507	1	
11	0	0	0	0	512	1	
12	0	0	0	0	513	1	
13	0	0	0	0	513	1	
14	0	0	0	0	511	1	
15	0	0	0	0	511	1	
0	0	0	0	0	512	2	
1	0	0	0	0	511	3	
2	0	0	0	0	511	1	
3	0	0	0	0	508	1	
4	0	0	0	0	510	1	
5	0	0	0	0	511	1	
6	0	0	0	0	510	1	
7	0	0	0	0	506	1	
8	0	0	0	0	504	2	
9	0	0	0	0	504	3	
10	0	0	0	0	507	1	
11	0	0	0	0	509	1	
12	0	0	0	0	510	1	
13	0	0	0	0	510	1	
14	0	0	0	0	506	1	
15	0	0	0	0	512	1	
0	0	0	0	0	513	2	
1	0	0	0	0	512	3	
2	0	0	0	0	511	1	
3	0	0	0	0	510	2	
4	0	0	0	0	508	1	
5	0	0	0	0	510	1	
6	0	0	0	0	512	1	
7	0	0	0	0	515	1	
8	0	0	0	0	512	2	
9	0	0	0	0	509	3	
10	0	0	0	0	512	1	
11	0	0	0	0	508	1	
12	0	0	0	0	509	1	
13	0	0	0	0	511	1	
14	0	0	0	0	512	1	
15	0	0	0	0	511	1	
0	0	0	0	0	508	2	
1	0	0	0	0	506	3	
2	0	0	0	0	510	1	
3	0	0	0	0	508	1	
4	0	0	0	0	509	1	
5	0	0	0	0	508	1	
6	0	0	0	0	507	1	
7	0	0	0	0	508	1	
8	0	0	0	0	508	2	
9	0	0	0	0	511	3	
10	0	0	0	0	511	1	
11	0	0	0	0	508	1	
12	0	0	0	0	508	1	
13	0	0	0	0	509	1	
14	0	0	0	0	509	1	
15	0	0	0	0	508	1	
0	0	0	0	0	509	1	
1	0	0	0	0	509	2	
2	0	0	0	0	511	1	
3	0	0	0	0	512	1	
4	0	0	0	0	509	1	
5	0	0	0	0	508	1	
6	0	0	0	0	508	1	
7	0	0	0	0	509	1	
8	0	0	0	0	511	1	
9	0	0	0	0	511	2	
10	0	0	0	0	508	1	
11	0	0	0	0	508	1	
12	0	0	0	0	508	1	
13	0	0	0	0	512	1	
14	0	0	0	0	511	1	
15	0	0	0	0	511	1	
0	0	0	0	0	510	1	
1	0	0	0	0	508	2	
2	0	0	0	0	511	1	
3	0	0	0	0	508	1	
4	0	0	0	0	511	1	
5	0	0	0	0	510	1	
6	0	0	0	0	511	1	
7	0	0	0	0	511	1	
8	0	0	0	0	509	2	
9	0	0	0	0	510	3	
10	0	0	0	0	512	1	
11	0	0	0	0	512	1	
12	0	0	0	0	511	1	
13	0	0	0	0	508	1	
14	0	0	0	0	507	1	
15	0	0	0	0	508	1	
0	0	0	0	0	506	2	
1	0	0	0	0	509	3	
2	0	0	0	0	513	1	
3	0	0	0	0	509	1	
4	0	0	0	0	510	2	
5	0	0	0	0	510	1	
6	0	0	0	0	511	1	
7	0	0	0	0	511	1	
8	0	0	0	0	508	2	
9	0	0	0	0	509	3	
10	0	0	0	0	510	1	
11	0	0	0	0	510	1	
12	0	0	0	0	511	1	
13	0	0	0	0	511	1	
14	0	0	0	0	511	1	
15	0	0	0	0	511	1	
0	0	0	0	0	512	2	
1	0	0	0	0	507	3	
2	0	0	0	0	508	1	
3	0	0	0	0	508	1	
4	0	0	0	0	508	1	
5	0	0	0	0	505	1	
6	0	0	0	0	508	1	
7	0	0	0	0	510	1	
8	0	0	0	0	512	2	
9	0	0	0	0	513	3	
10	0	0	0	0	510	1	
11	0	0	0	0	509	1	
12	0	0	0	0	509	1	
13	0	0	0	0	510	1	
14	0	0	0	0	508	1	
15	0	0	0	0	508	1	
0	0	0	0	0	508	2	
1	0	0	0	0	509	3	
2	0	0	0	0	510	1	
3	0	0	0	0	512	1	
4	0	0	0	0	510	1	
5	0	0	0	0	510	1	
6	0	0	0	0	510	1	
7	0	0	0	0	510	1	
8	0	0	0	0	507	2	
9	0	0	0	0	508	3	
10	0	0	0	0	510	1	
11	0	0	0	0	508	1	
12	0	0	0	0	510	1	
13	0	0	0	0	510	1	
14	0	0	0	0	511	1	
15	0	0	0	0	509	1	
0	0	0	0	0	511	2	
1	0	0	0	0	512	3	
2	0	0	0	0	511	1	
3	0	0	0	0	510	1	
4	0	0	0	0	509	1	
5	0	0	0	0	509	1	
6	0	0	0	0	510	1	
7	0	0	0	0	510	1	
8	0	0	0	0	513	2	
9	0	0	0	0	510	3	
10	0	0	0	0	507	1	
11	0	0	0	0	505	1	
12	0	0	0	0	510	1	
13	0	0	0	0	506	1	
14	0	0	0	0	510	1	
15	0	0	0	0	511	1	
0	0	0	0	0	516	2	
1	0	0	0	0	515	3	
2	0	0	0	0	511	1	
3	0	0	0	0	508	1	
4	0	0	0	0	508	1	
5	0	0	0	0	506	1	
6	0	0	0	0	508	1	
7	0	0	0	0	508	1	
8	0	0	0	0	510	2	
9	0	0	0	0	507	3	
10	0	0	0	0	506	1	
11	0	0	0	0	511	1	
12	0	0	0	0	512	1	
13	0	0	0	0	515	1	
14	0	0	0	0	512	1	
15	0	0	0	0	509	1	
0	0	0	0	0	507	1	
1	0	0	0	0	510	2	
2	0	0	0	0	509	1	
3	0	0	0	0	513	1	
4	0	0	0	0	505	1	
5	0	0	0	0	504	1	
6	0	0	0	0	505	1	
7	0	0	0	0	502	1	
8	0	0	0	0	509	1	
9	0	0	0	0	511	2	
10	0	0	0	0	515	1	
11	0	0	0	0	514	1	
12	0	0	0	0	514	1	
13	0	0	0	0	512	1	
14	0	0	0	0	505	1	
15	0	0	0	0	510	1	
0	0	0	0	0	510	1	
1	0	0	0	0	510	2	
2	0	0	0	0	509	1	
3	0	0	0	0	507	1	
4	0	0	0	0	510	1	
5	0	0	0	0	508	1	
6	0	0	0	0	510	1	
7	0	0	0	0	509	1	
8	0	0	0	0	508	2	
9	0	0	0	0	512	3	
10	0	0	0	0	512	1	
11	0	0	0	0	511	1	
12	0	0	0	0	511	1	
13	0	0	0	0	511	1	
14	0	0	0	0	510	1	
15	0	0	0	0	511	1	
0	0	0	0	0	512	2	
1	0	0	0	0	508	3	
2	0	0	0	0	509	1	
3	0	0	0	0	508	1	
4	0	0	0	0	506	1	
5	0	0	0	0	506	1	
6	0	0	0	0	510	1	
7	0	0	0	0	509	1	
8	0	0	0	0	510	2	
9	0	0	0	0	511	3	
10	0	0	0	0	510	1	
11	0	0	0	0	510	2	
12	0	0	0	0	508	1	
13	0	0	0	0	508	1	
14	0	0	0	0	509	1	
15	0	0	0	0	508	1	
0	0	0	0	0	505	1	
1	0	0	0	0	505	3	
2	0	0	0	0	508	1	
3	0	0	0	0	507	1	
4	0	0	0	0	508	1	
5	0	0	0	0	510	1	
6	0	0	0	0	515	1	
7	0	0	0	0	513	1	
8	0	0	0	0	511	2	
9	0	0	0	0	512	3	
10	0	0	0	0	507	1	
11	0	0	0	0	508	1	
12	0	0	0	0	513	2	
13	0	0	0	0	513	1	
14	0	0	0	0	514	1	
15	0	0	0	0	512	1	
0	0	0	0	0	510	2	
1	0	0	0	0	510	3	
2	0	0	0	0	509	1	
3	0	0	0	0	508	1	
4	0	0	0	0	507	1	
5	0	0	0	0	510	1	
6	0	0	0	0	509	1	
7	0	0	0	0	505	1	
8	0	0	0	0	507	2	
9	0	0	0	0	509	3	
10	0	0	0	0	510	1	
11	0	0	0	0	510	1	
12	0	0	0	0	510	1	
13	0	0	0	0	510	1	
14	0	0	0	0	512	1	
15	0	0	0	0	510	1	
0	0	0	0	0	513	2	
1	0	0	0	0	506	3	
2	0	0	0	0	507	1	
3	0	0	0	0	511	1	
4	0	0	0	0	511	1	
5	0	0	0	0	507	1	
6	0	0	0	0	511	1	
7	0	0	0	0	510	1	
8	0	0	0	0	505	2	
9	0	0	0	0	505	3	
10	0	0	0	0	512	1	
11	0	0	0	0	512	1	
12	0	0	0	0	511	1	
13	0	0	0	0	510	1	
14	0	0	0	0	507	1	
15	0	0	0	0	508	1	
0	0	0	0	0	508	2	
1	0	0	0	0	507	3	
2	0	0	0	0	508	1	
3	0	0	0	0	510	1	
4	0	0	0	0	510	1	
5	0	0	0	0	511	1	
6	0	0	0	0	511	1	
7	0	0	0	0	513	1	
8	0	0	0	0	512	2	
9	0	0	0	0	510	3	
10	0	0	0	0	507	1	
11	0	0	0	0	510	1	
12	0	0	0	0	511	1	
13	0	0	0	0	511	1	
14	0	0	0	0	510	1	
15	0	0	0	0	514	1	
0	0	0	0	0	511	2	
1	0	0	0	0	508	2	
2	0	0	0	0	509	1	
3	0	0	0	0	509	1	
4	0	0	0	0	506	1	
5	0	0	0	0	508	1	
6	0	0	0	0	508	1	
7	0	0	0	0	511	1	
8	0	0	0	0	510	1	
9	0	0	0	0	514	2	
10	0	0	0	0	513	1	
11	0	0	0	0	509	1	
12	0	0	0	0	505	1	
13	0	0	0	0	507	1	
14	0	0	0	0	505	1	
15	0	0	0	0	507	1	
0	0	0	0	0	511	2	
1	0	0	0	0	505	3	
2	0	0	0	0	504	1	
3	0	0	0	0	509	1	
4	0	0	0	0	512	1	
5	0	0	0	0	512	1	
6	0	0	0	0	515	1	
7	0	0	0	0	511	1	
8	0	0	0	0	510	2	
9	0	0	0	0	512	3	
10	0	0	0	0	512	1	
11	0	0	0	0	510	1	
12	0	0	0	0	513	1	
13	0	0	0	0	511	1	
14	0	0	0	0	509	1	
15	0	0	0	0	509	1	
0	0	0	0	0	508	2	
1	0	0	0	0	508	3	
2	0	0	0	0	508	1	
3	0	0	0	0	510	1	
4	0	0	0	0	508	1	
5	0	0	0	0	511	1	
6	0	0	0	0	509	1	
7	0	0	0	0	508	1	
8	0	0	0	0	505	1	
9	0	0	0	0	508	3	
10	0	0	0	0	505	1	
11	0	0	0	0	507	1	
12	0	0	0	0	512	1	
13	0	0	0	0	513	1	
14	0	0	0	0	515	1	
15	0	0	0	0	515	1	
0	0	0	0	0	511	2	
1	0	0	0	0	509	3	
2	0	0	0	0	506	1	
3	0	0	0	0	511	1	
4	0	0	0	0	516	1	
5	0	0	0	0	512	1	
6	0	0	0	0	511	1	
7	0	0	0	0	512	1	
8	0	0	0	0	511	2	
9	0	0	0	0	508	3	
10	0	0	0	0	506	1	
11	0	0	0	0	509	1	
12	0	0	0	0	508	1	
13	0	0	0	0	504	1	
14	0	0	0	0	504	1	
15	0	0	0	0	504	1	
0	0	0	0	0	503	1	
1	0	0	0	0	501	3	
2	0	0	0	0	507	1	
3	0	0	0	0	505	1	
4	0	0	0	0	508	1	
5	0	0	0	0	509	1	
6	0	0	0	0	512	1	
7	0	0	0	0	511	1	
8	0	0	0	0	514	2	
9	0	0	0	0	517	3	
10	0	0	0	0	517	1	
11	0	0	0	0	515	1	
12	0	0	0	0	512	1	
13	0	0	0	0	512	1	
14	0	0	0	0	509	1	
15	0	0	0	0	508	1	
0	0	0	0	0	503	1	
1	0	0	0	0	507	3	
2	0	0	0	0	508	1	
3	0	0	0	0	507	1	
4	0	0	0	0	510	1	
5	0	0	0	0	509	1	
6	0	0	0	0	511	1	
7	0	0	0	0	517	1	
8	0	0	0	0	515	2	
9	0	0	0	0	512	3	
10	0	0	0	0	509	1	
11	0	0	0	0	507	1	
12	0	0	0	0	508	1	
13	0	0	0	0	509	1	
14	0	0	0	0	507	1	
15	0	0	0	0	506	1	
0	0	0	0	0	507	1	
1	0	0	0	0	505	3	
2	0	0	0	0	507	1	
3	0	0	0	0	506	1	
4	0	0	0	0	517	1	
5	0	0	0	0	522	1	
6	0	0	0	0	519	1	
7	0	0	0	0	516	1	
8	0	0	0	0	511	1	
9	0	0	0	0	508	2	
10	0	0	0	0	509	1	
11	0	0	0	0	503	1	
12	0	0	0	0	504	1	
13	0	0	0	0	509	1	
14	0	0	0	0	509	1	
15	0	0	0	0	512	1	
0	0	0	0	0	510	1	
1	0	0	0	0	505	2	
2	0	0	0	0	510	1	
3	0	0	0	0	508	1	
4	0	0	0	0	508	1	
5	0	0	0	0	509	1	
6	0	0	0	0	508	1	
7	0	0	0	0	504	1	
8	0	0	0	0	504	1	
9	0	0	0	0	507	2	
10	0	0	0	0	510	1	
11	0	0	0	0	512	1	
12	0	0	0	0	515	1	
13	0	0	0	0	507	1	
14	0	0	0	0	506	1	
15	0	0	0	0	505	1	
0	0	0	0	0	512	2	
1	0	0	0	0	512	3	
2	0	0	0	0	515	1	
3	0	0	0	0	515	1	
4	0	0	0	0	511	1	
5	0	0	0	0	504	1	
6	0	0	0	0	507	1	
7	0	0	0	0	509	1	
8	0	0	0	0	509	2	
9	0	0	0	0	513	3	
10	0	0	0	0	512	1	
11	0	0	0	0	512	1	
12	0	0	0	0	515	1	
13	0	0	0	0	511	1	
14	0	0	0	0	508	1	
15	0	0	0	0	509	1	
0	0	0	0	0	511	2	
1	0	0	0	0	507	3	
2	0	0	0	0	510	1	
3	0	0	0	0	506	1	
4	0	0	0	0	509	1	
5	0	0	0	0	508	1	
6	0	0	0	0	508	1	
7	0	0	0	0	508	1	
8	0	0	0	0	505	1	
9	0	0	0	0	506	3	
10	0	0	0	0	510	1	
11	0	0	0	0	512	1	
12	0	0	0	0	519	2	
13	0	0	0	0	515	1	
14	0	0	0	0	509	1	
15	0	0	0	0	506	1	
0	0	0	0	0	507	2	
1	0	0	0	0	506	3	
2	0	0	0	0	510	1	
3	0	0	0	0	513	1	
4	0	0	0	0	514	1	
5	0	0	0	0	509	1	
6	0	0	0	0	508	1	
7	0	0	0	0	510	1	
8	0	0	0	0	509	2	
9	0	0	0	0	508	3	
10	0	0	0	0	511	1	
11	0	0	0	0	513	1	
12	0	0	0	0	512	1	
13	0	0	0	0	512	1	
14	0	0	0	0	511	1	
15	0	0	0	0	510	1	
0	0	0	0	0	507	2	
1	0	0	0	0	508	3	
2	0	0	0	0	508	1	
3	0	0	0	0	507	1	
4	0	0	0	0	507	1	
5	0	0	0	0	508	1	
6	0	0	0	0	505	1	
7	0	0	0	0	506	1	
8	0	0	0	0	504	1	
9	0	0	0	0	502	3	
10	0	0	0	0	504	1	
11	0	0	0	0	506	1	
12	0	0	0	0	515	1	
13	0	0	0	0	518	1	
14	0	0	0	0	524	1	
15	0	0	0	0	521	2	
0	0	0	0	0	511	2	
1	0	0	0	0	509	3	
2	0	0	0	0	510	1	
3	0	0	0	0	509	1	
4	0	0	0	0	508	1	
5	0	0	0	0	512	1	
6	0	0	0	0	511	1	
7	0	0	0	0	508	1	
8	0	0	0	0	507	2	
9	0	0	0	0	502	3	
10	0	0	0	0	504	1	
11	0	0	0	0	507	1	
12	0	0	0	0	508	1	
13	0	0	0	0	511	1	
14	0	0	0	0	510	1	
15	0	0	0	0	511	1	
0	0	0	0	0	512	2	
1	0	0	0	0	511	3	
2	0	0	0	0	509	1	
3	0	0	0	0	510	1	
4	0	0	0	0	508	1	
5	0	0	0	0	510	1	
6	0	0	0	0	511	1	
7	0	0	0	0	509	1	
8	0	0	0	0	510	1	
9	0	0	0	0	513	2	
10	0	0	0	0	515	1	
11	0	0	0	0	509	1	
12	0	0	0	0	511	1	
13	0	0	0	0	509	1	
14	0	0	0	0	510	1	
15	0	0	0	0	508	1	
0	0	0	0	0	508	1	
1	0	0	0	0	508	2	
2	0	0	0	0	510	1	
3	0	0	0	0	508	1	
4	0	0	0	0	508	2	
5	0	0	0	0	507	1	
6	0	0	0	0	504	1	
7	0	0	0	0	508	1	
8	0	0	0	0	511	1	
9	0	0	0	0	509	2	
10	0	0	0	0	509	1	
11	0	0	0	0	507	1	
12	0	0	0	0	507	1	
13	0	0	0	0	510	1	
14	0	0	0	0	511	1	
15	0	0	0	0	511	1	
0	0	0	0	0	513	2	
1	0	0	0	0	511	3	
2	0	0	0	0	508	1	
3	0	0	0	0	504	1	
4	0	0	0	0	504	1	
5	0	0	0	0	506	1	
6	0	0	0	0	509	1	
7	0	0	0	0	512	1	
8	0	0	0	0	522	2	
9	0	0	0	0	518	3	
10	0	0	0	0	510	1	
11	0	0	0	0	511	2	
12	0	0	0	0	504	1	
13	0	0	0	0	507	1	
14	0	0	0	0	511	1	
15	0	0	0	0	517	1	
0	0	0	0	0	513	2	
1	0	0	0	0	508	3	
2	0	0	0	0	505	1	
3	0	0	0	0	503	1	
4	0	0	0	0	508	1	
5	0	0	0	0	507	1	
6	0	0	0	0	508	1	
7	0	0	0	0	510	1	
8	0	0	0	0	509	2	
9	0	0	0	0	513	3	
10	0	0	0	0	514	2	
11	0	0	0	0	509	1	
12	0	0	0	0	505	1	
13	0	0	0	0	507	1	
14	0	0	0	0	510	1	
15	0	0	0	0	511	1	
0	0	0	0	0	511	2	
1	0	0	0	0	511	3	
2	0	0	0	0	510	1	
3	0	0	0	0	510	1	
4	0	0	0	0	511	1	
5	0	0	0	0	510	1	
6	0	0	0	0	507	1	
7	0	0	0	0	510	1	
8	0	0	0	0	510	1	
9	0	0	0	0	509	3	
10	0	0	0	0	508	1	
11	0	0	0	0	508	1	
12	0	0	0	0	510	1	
13	0	0	0	0	513	1	
14	0	0	0	0	508	1	
15	0	0	0	0	507	1	
0	0	0	0	0	508	2	
1	0	0	0	0	510	3	
2	0	0	0	0	511	1	
3	0	0	0	0	507	1	
4	0	0	0	0	505	1	
5	0	0	0	0	511	1	
6	0	0	0	0	513	1	
7	0	0	0	0	514	1	
8	0	0	0	0	511	2	
9	0	0	0	0	509	3	
10	0	0	0	0	513	1	
11	0	0	0	0	512	1	
12	0	0	0	0	507	1	
13	0	0	0	0	509	1	
14	0	0	0	0	506	1	
15	0	0	0	0	514	1	
0	0	0	0	0	510	2	
1	0	0	0	0	510	3	
2	0	0	0	0	514	1	
3	0	0	0	0	510	1	
4	0	0	0	0	502	1	
5	0	0	0	0	500	1	
6	0	0	0	0	507	1	
7	0	0	0	0	510	1	
8	0	0	0	0	509	2	
9	0	0	0	0	505	3	
10	0	0	0	0	504	1	
11	0	0	0	0	508	1	
12	0	0	0	0	517	1	
13	0	0	0	0	519	1	
14	0	0	0	0	514	1	
15	0	0	0	0	511	1	
0	0	0	0	0	513	2	
1	0	0	0	0	511	2	
2	0	0	0	0	509	1	
3	0	0	0	0	508	1	
4	0	0	0	0	507	1	
5	0	0	0	0	506	1	
6	0	0	0	0	502	1	
7	0	0	0	0	505	1	
8	0	0	0	0	509	1	
9	0	0	0	0	512	2	
10	0	0	0	0	511	1	
11	0	0	0	0	514	1	
12	0	0	0	0	514	1	
13	0	0	0	0	513	1	
14	0	0	0	0	511	1	
15	0	0	0	0	509	1	
0	0	0	0	0	507	1	
1	0	0	0	0	506	2	
2	0	0	0	0	507	1	
3	0	0	0	0	504	1	
4	0	0	0	0	506	1	
5	0	0	0	0	510	1	
6	0	0	0	0	511	1	
7	0	0	0	0	510	1	
8	0	0	0	0	509	2	
9	0	0	0	0	515	3	
10	0	0	0	0	515	1	
11	0	0	0	0	518	1	
12	0	0	0	0	516	1	
13	0	0	0	0	509	1	
14	0	0	0	0	505	1	
15	0	0	0	0	505	1	
0	0	0	0	0	508	2	
1	0	0	0	0	507	3	
2	0	0	0	0	507	1	
3	0	0	0	0	510	1	
4	0	0	0	0	512	1	
5	0	0	0	0	510	1	
6	0	0	0	0	510	1	
7	0	0	0	0	508	1	
8	0	0	0	0	510	2	
9	0	0	0	0	509	3	
10	0	0	0	0	508	1	
11	0	0	0	0	510	1	
12	0	0	0	0	508	1	
13	0	0	0	0	509	1	
14	0	0	0	0	508	1	
15	0	0	0	0	507	1	
0	0	0	0	0	509	2	
1	0	0	0	0	509	3	
2	0	0	0	0	505	1	
3	0	0	0	0	511	1	
4	0	0	0	0	514	1	
5	0	0	0	0	515	1	
6	0	0	0	0	511	1	
7	0	0	0	0	511	1	
8	0	0	0	0	511	2	
9	0	0	0	0	508	3	
10	0	0	0	0	510	1	
11	0	0	0	0	511	1	
12	0	0	0	0	509	1	
13	0	0	0	0	511	1	
14	0	0	0	0	511	1	
15	0	0	0	0	503	1	
0	0	0	0	0	503	1	
1	0	0	0	0	510	3	
2	0	0	0	0	512	1	
3	0	0	0	0	513	1	
4	0	0	0	0	512	1	
5	0	0	0	0	510	1	
6	0	0	0	0	511	1	
7	0	0	0	0	507	1	
8	0	0	0	0	503	1	
9	0	0	0	0	506	3	
10	0	0	0	0	510	1	
11	0	0	0	0	513	1	
12	0	0	0	0	509	1	
13	0	0	0	0	515	1	
14	0	0	0	0	515	1	
15	0	0	0	0	513	1	
0	0	0	0	0	508	2	
1	0	0	0	0	503	3	
2	0	0	0	0	507	1	
3	0	0	0	0	507	1	
4	0	0	0	0	511	1	
5	0	0	0	0	512	1	
6	0	0	0	0	512	1	
7	0	0	0	0	508	1	
8	0	0	0	0	507	2	
9	0	0	0	0	509	3	
10	0	0	0	0	513	1	
11	0	0	0	0	512	1	
12	0	0	0	0	512	1	
13	0	0	0	0	508	1	
14	0	0	0	0	507	1	
15	0	0	0	0	509	1	
0	0	0	0	0	508	2	
1	0	0	0	0	508	3	
2	0	0	0	0	508	1	
3	0	0	0	0	507	1	
4	0	0	0	0	511	1	
5	0	0	0	0	522	1	
6	0	0	0	0	514	1	
7	0	0	0	0	508	1	
8	0	0	0	0	505	2	
9	0	0	0	0	505	3	
10	0	0	0	0	505	1	
11	0	0	0	0	504	1	
12	0	0	0	0	508	1	
13	0	0	0	0	511	1	
14	0	0	0	0	511	1	
15	0	0	0	0	512	1	
0	0	0	0	0	512	1	
1	0	0	0	0	510	2	
2	0	0	0	0	510	1	
3	0	0	0	0	512	1	
4	0	0	0	0	513	1	
5	0	0	0	0	507	1	
6	0	0	0	0	510	1	
7	0	0	0	0	508	1	
8	0	0	0	0	508	1	
9	0	0	0	0	511	2	
10	0	0	0	0	511	1	
11	0	0	0	0	513	2	
12	0	0	0	0	523	1	
13	0	0	0	0	511	1	
14	0	0	0	0	503	1	
15	0	0	0	0	502	1	
0	0	0	0	0	499	1	
1	0	0	0	0	505	2	
2	0	0	0	0	518	1	
3	0	0	0	0	512	1	
4	0	0	0	0	511	1	
5	0	0	0	0	511	1	
6	0	0	0	0	507	1	
7	0	0	0	0	509	1	
8	0	0	0	0	513	2	
9	0	0	0	0	512	3	
10	0	0	0	0	511	1	
11	0	0	0	0	510	1	
12	0	0	0	0	512	1	
13	0	0	0	0	507	1	
14	0	0	0	0	506	1	
15	0	0	0	0	509	1	
0	0	0	0	0	509	1	
1	0	0	0	0	514	3	
2	0	0	0	0	508	1	
3	0	0	0	0	508	1	
4	0	0	0	0	511	1	
5	0	0	0	0	509	1	
6	0	0	0	0	512	1	
7	0	0	0	0	510	1	
8	0	0	0	0	505	2	
9	0	0	0	0	507	3	
10	0	0	0	0	508	1	
11	0	0	0	0	500	1	
12	0	0	0	0	506	1	
13	0	0	0	0	508	1	
14	0	0	0	0	505	1	
15	0	0	0	0	505	1	
0	0	0	0	0	512	2	
1	0	0	0	0	516	3	
2	0	0	0	0	521	2	
3	0	0	0	0	510	1	
4	0	0	0	0	507	1	
5	0	0	0	0	515	1	
6	0	0	0	0	511	1	
7	0	0	0	0	508	1	
8	0	0	0	0	506	1	
9	0	0	0	0	505	3	
10	0	0	0	0	510	1	
11	0	0	0	0	509	1	
12	0	0	0	0	510	1	
13	0	0	0	0	513	1	
14	0	0	0	0	510	1	
15	0	0	0	0	512	1	
0	0	0	0	0	513	2	
1	0	0	0	0	508	3	
2	0	0	0	0	505	1	
3	0	0	0	0	507	1	
4	0	0	0	0	504	1	
5	0	0	0	0	505	1	
6	0	0	0	0	509	1	
7	0	0	0	0	512	1	
8	0	0	0	0	510	2	
9	0	0	0	0	511	3	
10	0	0	0	0	514	1	
11	0	0	0	0	513	1	
12	0	0	0	0	512	1	
13	0	0	0	0	507	1	
14	0	0	0	0	506	1	
15	0	0	0	0	507	1	
0	0	0	0	0	513	2	
1	0	0	0	0	513	3	
2	0	0	0	0	512	1	
3	0	0	0	0	509	1	
4	0	0	0	0	512	1	
5	0	0	0	0	515	1	
6	0	0	0	0	514	1	
7	0	0	0	0	511	1	
8	0	0	0	0	508	1	
9	0	0	0	0	509	3	
10	0	0	0	0	505	1	
11	0	0	0	0	507	1	
12	0	0	0	0	505	1	
13	0	0	0	0	503	1	
14	0	0	0	0	504	1	
15	0	0	0	0	501	1	
0	0	0	0	0	496	1	
1	0	0	0	0	500	3	
2	0	0	0	0	512	1	
3	0	0	0	0	518	1	
4	0	0	0	0	518	1	
5	0	0	0	0	516	1	
6	0	0	0	0	512	1	
7	0	0	0	0	509	1	
8	0	0	0	0	512	2	
9	0	0	0	0	513	3	
10	0	0	0	0	512	1	
11	0	0	0	0	512	1	
12	0	0	0	0	515	1	
13	0	0	0	0	514	1	
14	0	0	0	0	511	1	
15	0	0	0	0	509	1	
0	0	0	0	0	507	1	
1	0	0	0	0	505	2	
2	0	0	0	0	507	1	
3	0	0	0	0	507	1	
4	0	0	0	0	510	1	
5	0	0	0	0	513	1	
6	0	0	0	0	517	1	
7	0	0	0	0	513	1	
8	0	0	0	0	512	1	
9	0	0	0	0	508	2	
10	0	0	0	0	505	1	
11	0	0	0	0	499	1	
12	0	0	0	0	502	1	
13	0	0	0	0	501	1	
14	0	0	0	0	503	1	
15	0	0	0	0	502	1	
0	0	0	0	0	505	1	
1	0	0	0	0	505	2	
2	0	0	0	0	509	1	
3	0	0	0	0	508	1	
4	0	0	0	0	514	1	
5	0	0	0	0	520	1	
6	0	0	0	0	519	1	
7	0	0	0	0	513	1	
8	0	0	0	0	510	2	
9	0	0	0	0	509	3	
10	0	0	0	0	517	1	
11	0	0	0	0	517	1	
12	0	0	0	0	509	1	
13	0	0	0	0	511	1	
14	0	0	0	0	508	1	
15	0	0	0	0	509	1	
0	0	0	0	0	508	1	
1	0	0	0	0	506	3	
2	0	0	0	0	504	1	
3	0	0	0	0	504	1	
4	0	0	0	0	508	1	
5	0	0	0	0	512	1	
6	0	0	0	0	511	1	
7	0	0	0	0	512	1	
8	0	0	0	0	511	2	
9	0	0	0	0	511	3	
10	0	0	0	0	512	1	
11	0	0	0	0	506	1	
12	0	0	0	0	507	1	
13	0	0	0	0	514	1	
14	0	0	0	0	510	1	
15	0	0	0	0	508	1	
0	0	0	0	0	508	2	
1	0	0	0	0	510	3	
2	0	0	0	0	513	1	
3	0	0	0	0	508	1	
4	0	0	0	0	506	1	
5	0	0	0	0	505	1	
6	0	0	0	0	508	1	
7	0	0	0	0	508	1	
8	0	0	0	0	509	2	
9	0	0	0	0	511	3	
10	0	0	0	0	513	1	
11	0	0	0	0	513	1	
12	0	0	0	0	510	1	
13	0	0	0	0	505	1	
14	0	0	0	0	507	1	
15	0	0	0	0	512	1	
0	0	0	0	0	511	2	
1	0	0	0	0	510	3	
2	0	0	0	0	512	1	
3	0	0	0	0	513	1	
4	0	0	0	0	511	1	
5	0	0	0	0	508	1	
6	0	0	0	0	503	1	
7	0	0	0	0	504	1	
8	0	0	0	0	503	2	
9	0	0	0	0	506	3	
10	0	0	0	0	510	1	
11	0	0	0	0	506	1	
12	0	0	0	0	507	1	
13	0	0	0	0	510	1	
14	0	0	0	0	510	1	
15	0	0	0	0	510	1	
0	0	0	0	0	515	2	
1	0	0	0	0	515	3	
2	0	0	0	0	511	1	
3	0	0	0	0	510	1	
4	0	0	0	0	513	1	
5	0	0	0	0	511	1	
6	0	0	0	0	510	1	
7	0	0	0	0	519	2	
8	0	0	0	0	513	2	
9	0	0	0	0	511	3	
10	0	0	0	0	508	1	
11	0	0	0	0	508	1	
12	0	0	0	0	507	1	
13	0	0	0	0	508	1	
14	0	0	0	0	508	1	
15	0	0	0	0	503	1	
0	0	0	0	0	505	2	
1	0	0	0	0	502	3	
2	0	0	0	0	504	1	
3	0	0	0	0	517	1	
4	0	0	0	0	529	2	
5	0	0	0	0	524	1	
6	0	0	0	0	518	2	
7	0	0	0	0	515	1	
8	0	0	0	0	509	2	
9	0	0	0	0	508	2	
10	0	0	0	0	504	1	
11	0	0	0	0	503	1	
12	0	0	0	0	500	1	
13	0	0	0	0	500	1	
14	0	0	0	0	507	1	
15	0	0	0	0	515	1	
0	0	0	0	0	514	1	
1	0	0	0	0	509	2	
2	0	0	0	0	510	1	
3	0	0	0	0	506	1	
4	0	0	0	0	507	1	
5	0	0	0	0	508	1	
6	0	0	0	0	510	2	
7	0	0	0	0	512	1	
8	0	0	0	0	511	1	
9	0	0	0	0	508	2	
10	0	0	0	0	511	1	
11	0	0	0	0	513	2	
12	0	0	0	0	512	1	
13	0	0	0	0	509	1	
14	0	0	0	0	511	1	
15	0	0	0	0	511	1	
0	0	0	0	0	510	2	
1	0	0	0	0	503	3	
2	0	0	0	0	505	1	
3	0	0	0	0	506	1	
4	0	0	0	0	505	1	
5	0	0	0	0	505	1	
6	0	0	0	0	510	1	
7	0	0	0	0	512	1	
8	0	0	0	0	512	2	
9	0	0	0	0	513	3	
10	0	0	0	0	512	1	
11	0	0	0	0	511	2	
12	0	0	0	0	511	1	
13	0	0	0	0	515	1	
14	0	0	0	0	519	1	
15	0	0	0	0	515	1	
0	0	0	0	0	504	1	
1	0	0	0	0	504	3	
2	0	0	0	0	506	1	
3	0	0	0	0	504	1	
4	0	0	0	0	506	1	
5	0	0	0	0	513	1	
6	0	0	0	0	510	1	
7	0	0	0	0	515	1	
8	0	0	0	0	523	2	
9	0	0	0	0	524	3	
10	0	0	0	0	513	1	
11	0	0	0	0	506	1	
12	0	0	0	0	506	1	
13	0	0	0	0	506	1	
14	0	0	0	0	504	1	
15	0	0	0	0	499	1	
0	0	0	0	0	503	1	
1	0	0	0	0	505	3	
2	0	0	0	0	511	1	
3	0	0	0	0	510	1	
4	0	0	0	0	509	1	
5	0	0	0	0	506	1	
6	0	0	0	0	507	1	
7	0	0	0	0	511	1	
8	0	0	0	0	512	2	
9	0	0	0	0	512	3	
10	0	0	0	0	512	1	
11	0	0	0	0	506	1	
12	0	0	0	0	508	1	
13	0	0	0	0	510	1	
14	0	0	0	0	509	1	
15	0	0	0	0	505	1	
0	0	0	0	0	507	2	
1	0	0	0	0	509	3	
2	0	0	0	0	508	1	
3	0	0	0	0	508	1	
4	0	0	0	0	511	1	
5	0	0	0	0	517	1	
6	0	0	0	0	518	1	
7	0	0	0	0	519	1	
8	0	0	0	0	513	2	
9	0	0	0	0	509	3	
10	0	0	0	0	508	1	
11	0	0	0	0	505	1	
12	0	0	0	0	508	1	
13	0	0	0	0	512	1	
14	0	0	0	0	511	1	
15	0	0	0	0	506	1	
0	0	0	0	0	504	2	
1	0	0	0	0	505	3	
2	0	0	0	0	506	1	
3	0	0	0	0	512	1	
4	0	0	0	0	512	1	
5	0	0	0	0	510	1	
6	0	0	0	0	509	1	
7	0	0	0	0	507	1	
8	0	0	0	0	511	2	
9	0	0	0	0	510	3	
10	0	0	0	0	502	1	
11	0	0	0	0	510	1	
12	0	0	0	0	513	2	
13	0	0	0	0	512	1	
14	0	0	0	0	511	1	
15	0	0	0	0	509	1	
0	0	0	0	0	512	2	
1	0	0	0	0	519	3	
2	0	0	0	0	512	1	
3	0	0	0	0	511	1	
4	0	0	0	0	510	1	
5	0	0	0	0	510	1	
6	0	0	0	0	505	1	
7	0	0	0	0	503	1	
8	0	0	0	0	502	1	
9	0	0	0	0	508	2	
10	0	0	0	0	507	1	
11	0	0	0	0	508	1	
12	0	0	0	0	514	1	
13	0	0	0	0	515	1	
14	0	0	0	0	511	1	
15	0	0	0	0	507	1	
0	0	0	0	0	502	1	
1	0	0	0	0	505	2	
2	0	0	0	0	507	1	
3	0	0	0	0	505	1	
4	0	0	0	0	511	1	
5	0	0	0	0	517	1	
6	0	0	0	0	517	1	
7	0	0	0	0	514	1	
8	0	0	0	0	509	1	
9	0	0	0	0	509	2	
10	0	0	0	0	512	1	
11	0	0	0	0	513	1	
12	0	0	0	0	515	1	
13	0	0	0	0	511	1	
14	0	0	0	0	505	1	
15	0	0	0	0	503	1	
0	0	0	0	0	508	2	
1	0	0	0	0	507	3	
2	0	0	0	0	504	1	
3	0	0	0	0	507	1	
4	0	0	0	0	511	1	
5	0	0	0	0	508	1	
6	0	0	0	0	510	1	
7	0	0	0	0	513	1	
8	0	0	0	0	514	2	
9	0	0	0	0	514	3	
10	0	0	0	0	513	1	
11	0	0	0	0	513	1	
12	0	0	0	0	516	1	
13	0	0	0	0	511	1	
14	0	0	0	0	501	1	
15	0	0	0	0	505	1	
0	0	0	0	0	505	1	
1	0	0	0	0	508	3	
2	0	0	0	0	512	1	
3	0	0	0	0	512	1	
4	0	0	0	0	510	1	
5	0	0	0	0	504	1	
6	0	0	0	0	503	1	
7	0	0	0	0	511	1	
8	0	0	0	0	512	2	
9	0	0	0	0	506	3	
10	0	0	0	0	509	1	
11	0	0	0	0	511	1	
12	0	0	0	0	519	1	
13	0	0	0	0	508	1	
14	0	0	0	0	503	1	
15	0	0	0	0	494	1	
0	0	0	0	0	500	1	
1	0	0	0	0	505	3	
2	0	0	0	0	511	1	
3	0	0	0	0	508	1	
4	0	0	0	0	512	1	
5	0	0	0	0	515	1	
6	0	0	0	0	519	1	
7	0	0	0	0	514	1	
8	0	0	0	0	505	1	
9	0	0	0	0	511	3	
10	0	0	0	0	516	2	
11	0	0	0	0	516	1	
12	0	0	0	0	512	1	
13	0	0	0	0	514	1	
14	0	0	0	0	508	1	
15	0	0	0	0	512	1	
0	0	0	0	0	511	2	
1	0	0	0	0	513	3	
2	0	0	0	0	512	1	
3	0	0	0	0	508	1	
4	0	0	0	0	504	1	
5	0	0	0	0	502	1	
6	0	0	0	0	504	1	
7	0	0	0	0	510	1	
8	0	0	0	0	514	2	
9	0	0	0	0	510	3	
10	0	0	0	0	509	1	
11	0	0	0	0	508	1	
12	0	0	0	0	507	1	
13	0	0	0	0	504	1	
14	0	0	0	0	504	1	
15	0	0	0	0	502	1	
0	0	0	0	0	507	2	
1	0	0	0	0	519	3	
2	0	0	0	0	527	1	
3	0	0	0	0	520	2	
4	0	0	0	0	514	1	
5	0	0	0	0	508	1	
6	0	0	0	0	508	1	
7	0	0	0	0	510	1	
8	0	0	0	0	512	2	
9	0	0	0	0	509	3	
10	0	0	0	0	508	1	
11	0	0	0	0	506	1	
12	0	0	0	0	506	1	
13	0	0	0	0	511	1	
14	0	0	0	0	515	1	
15	0	0	0	0	511	1	
0	0	0	0	0	505	1	
1	0	0	0	0	507	3	
2	0	0	0	0	506	1	
3	0	0	0	0	508	1	
4	0	0	0	0	508	1	
5	0	0	0	0	506	1	
6	0	0	0	0	507	1	
7	0	0	0	0	507	1	
8	0	0	0	0	512	1	
9	0	0	0	0	509	2	
10	0	0	0	0	508	1	
11	0	0	0	0	507	1	
12	0	0	0	0	505	1	
13	0	0	0	0	508	1	
14	0	0	0	0	508	1	
15	0	0	0	0	508	1	
0	0	0	0	0	512	2	
1	0	0	0	0	512	2	
2	0	0	0	0	508	1	
3	0	0	0	0	508	1	
4	0	0	0	0	507	1	
5	0	0	0	0	505	1	
6	0	0	0	0	511	1	
7	0	0	0	0	524	2	
8	0	0	0	0	527	2	
9	0	0	0	0	519	3	
10	0	0	0	0	510	1	
11	0	0	0	0	508	1	
12	0	0	0	0	506	1	
13	0	0	0	0	503	1	
14	0	0	0	0	504	1	
15	0	0	0	0	500	1	
0	0	0	0	0	497	1	
1	0	0	0	0	502	3	
2	0	0	0	0	516	1	
3	0	0	0	0	517	1	
4	0	0	0	0	519	2	
5	0	0	0	0	513	1	
6	0	0	0	0	512	1	
7	0	0	0	0	515	1	
8	0	0	0	0	510	2	
9	0	0	0	0	514	3	
10	0	0	0	0	513	1	
11	0	0	0	0	512	1	
12	0	0	0	0	509	1	
13	0	0	0	0	510	1	
14	0	0	0	0	511	1	
15	0	0	0	0	511	1	
0	0	0	0	0	507	2	
1	0	0	0	0	504	3	
2	0	0	0	0	504	1	
3	0	0	0	0	508	1	
4	0	0	0	0	512	1	
5	0	0	0	0	513	1	
6	0	0	0	0	512	1	
7	0	0	0	0	508	1	
8	0	0	0	0	508	1	
9	0	0	0	0	506	3	
10	0	0	0	0	503	1	
11	0	0	0	0	501	1	
12	0	0	0	0	502	1	
13	0	0	0	0	500	1	
14	0	0	0	0	503	1	
15	0	0	0	0	509	1	
0	0	0	0	0	519	2	
1	0	0	0	0	519	3	
2	0	0	0	0	518	1	
3	0	0	0	0	513	1	
4	0	0	0	0	511	1	
5	0	0	0	0	508	1	
6	0	0	0	0	509	1	
7	0	0	0	0	510	1	
8	0	0	0	0	505	1	
9	0	0	0	0	507	3	
10	0	0	0	0	511	1	
11	0	0	0	0	515	1	
12	0	0	0	0	512	1	
13	0	0	0	0	508	1	
14	0	0	0	0	502	1	
15	0	0	0	0	509	1	
0	0	0	0	0	510	2	
1	0	0	0	0	514	3	
2	0	0	0	0	513	1	
3	0	0	0	0	517	2	
4	0	0	0	0	512	1	
5	0	0	0	0	504	1	
6	0	0	0	0	499	1	
7	0	0	0	0	503	1	
8	0	0	0	0	512	2	
9	0	0	0	0	508	3	
10	0	0	0	0	505	1	
11	0	0	0	0	511	1	
12	0	0	0	0	522	1	
13	0	0	0	0	521	1	
14	0	0	0	0	521	1	
15	0	0	0	0	510	1	
0	0	0	0	0	501	1	
1	0	0	0	0	507	3	
2	0	0	0	0	510	1	
3	0	0	0	0	505	1	
4	0	0	0	0	505	1	
5	0	0	0	0	509	1	
6	0	0	0	0	506	1	
7	0	0	0	0	507	1	
8	0	0	0	0	507	1	
9	0	0	0	0	506	3	
10	0	0	0	0	504	1	
11	0	0	0	0	507	1	
12	0	0	0	0	514	1	
13	0	0	0	0	512	1	
14	0	0	0	0	508	1	
15	0	0	0	0	510	1	
0	0	0	0	0	511	2	
1	0	0	0	0	513	2	
2	0	0	0	0	523	1	
3	0	0	0	0	518	1	
4	0	0	0	0	508	1	
5	0	0	0	0	499	1	
6	0	0	0	0	497	1	
7	0	0	0	0	496	1	
8	0	0	0	0	500	1	
9	0	0	0	0	512	2	
10	0	0	0	0	520	1	
11	0	0	0	0	525	2	
12	0	0	0	0	524	1	
13	0	0	0	0	511	1	
14	0	0	0	0	498	1	
15	0	0	0	0	490	1	
0	0	0	0	0	491	1	
1	0	0	0	0	491	1	
2	0	0	0	0	510	1	
3	0	0	0	0	530	2	
4	0	0	0	0	531	2	
5	0	0	0	0	530	1	
6	0	0	0	0	526	1	
7	0	0	0	0	526	1	
8	0	0	0	0	503	1	
9	0	0	0	0	491	3	
10	0	0	0	0	499	1	
11	0	0	0	0	502	1	
12	0	0	0	0	506	1	
13	0	0	0	0	512	1	
14	0	0	0	0	516	1	
15	0	0	0	0	513	1	
0	0	0	0	0	509	2	
1	0	0	0	0	503	3	
2	0	0	0	0	497	1	
3	0	0	0	0	503	1	
4	0	0	0	0	511	1	
5	0	0	0	0	521	1	
6	0	0	0	0	521	1	
7	0	0	0	0	515	1	
8	0	0	0	0	507	2	
9	0	0	0	0	502	3	
10	0	0	0	0	502	1	
11	0	0	0	0	505	1	
12	0	0	0	0	504	1	
13	0	0	0	0	494	1	
14	0	0	0	0	504	1	
15	0	0	0	0	510	1	
0	0	0	0	0	512	2	
1	0	0	0	0	520	3	
2	0	0	0	0	526	2	
3	0	0	0	0	518	1	
4	0	0	0	0	512	1	
5	0	0	0	0	510	1	
6	0	0	0	0	513	1	
7	0	0	0	0	514	1	
8	0	0	0	0	511	2	
9	0	0	0	0	501	3	
10	0	0	0	0	498	1	
11	0	0	0	0	501	1	
12	0	0	0	0	507	1	
13	0	0	0	0	518	1	
14	0	0	0	0	515	2	
15	0	0	0	0	506	1	
0	0	0	0	0	504	2	
1	0	0	0	0	508	3	
2	0	0	0	0	519	2	
3	0	0	0	0	518	2	
4	0	0	0	0	516	1	
5	0	0	0	0	514	1	
6	0	0	0	0	509	1	
7	0	0	0	0	512	1	
8	0	0	0	0	511	2	
9	0	0	0	0	508	3	
10	0	0	0	0	503	1	
11	0	0	0	0	505	1	
12	0	0	0	0	504	1	
13	0	0	0	0	504	1	
14	0	0	0	0	505	1	
15	0	0	0	0	503	1	
0	0	0	0	0	505	1	
1	0	0	0	0	510	3	
2	0	0	0	0	510	2	
3	0	0	0	0	507	1	
4	0	0	0	0	512	1	
5	0	0	0	0	508	1	
6	0	0	0	0	494	1	
7	0	0	0	0	502	1	
8	0	0	0	0	516	2	
9	0	0	0	0	511	3	
10	0	0	0	0	518	1	
11	0	0	0	0	521	1	
12	0	0	0	0	521	1	
13	0	0	0	0	519	1	
14	0	0	0	0	521	1	
15	0	0	0	0	511	1	
0	0	0	0	0	510	2	
1	0	0	0	0	512	3	
2	0	0	0	0	508	1	
3	0	0	0	0	507	1	
4	0	0	0	0	504	1	
5	0	0	0	0	502	1	
6	0	0	0	0	502	1	
7	0	0	0	0	501	1	
8	0	0	0	0	499	1	
9	0	0	0	0	498	3	
10	0	0	0	0	503	1	
11	0	0	0	0	515	1	
12	0	0	0	0	524	2	
13	0	0	0	0	515	1	
14	0	0	0	0	507	1	
15	0	0	0	0	508	1	
0	0	0	0	0	512	1	
1	0	0	0	0	513	2	
2	0	0	0	0	512	1	
3	0	0	0	0	510	1	
4	0	0	0	0	502	1	
5	0	0	0	0	502	1	
6	0	0	0	0	505	1	
7	0	0	0	0	510	1	
8	0	0	0	0	509	2	
9	0	0	0	0	519	2	
10	0	0	0	0	512	1	
11	0	0	0	0	507	1	
12	0	0	0	0	510	1	
13	0	0	0	0	519	1	
14	0	0	0	0	519	1	
15	0	0	0	0	519	1	
0	0	0	0	0	516	1	
1	0	0	0	0	508	2	
2	0	0	0	0	510	2	
3	0	0	0	0	511	1	
4	0	0	0	0	509	1	
5	0	0	0	0	504	1	
6	0	0	0	0	506	1	
7	0	0	0	0	504	1	
8	0	0	0	0	505	2	
9	0	0	0	0	507	3	
10	0	0	0	0	508	1	
11	0	0	0	0	506	1	
12	0	0	0	0	503	1	
13	0	0	0	0	503	1	
14	0	0	0	0	510	1	
15	0	0	0	0	508	1	
0	0	0	0	0	508	2	
1	0	0	0	0	515	3	
2	0	0	0	0	514	1	
3	0	0	0	0	511	1	
4	0	0	0	0	509	1	
5	0	0	0	0	519	1	
6	0	0	0	0	519	2	
7	0	0	0	0	512	1	
8	0	0	0	0	510	2	
9	0	0	0	0	507	3	
10	0	0	0	0	500	1	
11	0	0	0	0	502	1	
12	0	0	0	0	503	1	
13	0	0	0	0	508	1	
14	0	0	0	0	508	1	
15	0	0	0	0	511	1	
0	0	0	0	0	510	1	
1	0	0	0	0	508	3	
2	0	0	0	0	506	2	
3	0	0	0	0	503	1	
4	0	0	0	0	507	1	
5	0	0	0	0	509	1	
6	0	0	0	0	516	1	
7	0	0	0	0	522	2	
8	0	0	0	0	517	2	
9	0	0	0	0	508	3	
10	0	0	0	0	509	1	
11	0	0	0	0	505	1	
12	0	0	0	0	505	1	
13	0	0	0	0	510	1	
14	0	0	0	0	512	1	
15	0	0	0	0	504	1	
0	0	0	0	0	497	1	
1	0	0	0	0	490	3	
2	0	0	0	0	499	1	
3	0	0	0	0	508	1	
4	0	0	0	0	518	1	
5	0	0	0	0	529	1	
6	0	0	0	0	544	2	
7	0	0	0	0	526	1	
8	0	0	0	0	514	2	
9	0	0	0	0	513	3	
10	0	0	0	0	513	1	
11	0	0	0	0	510	2	
12	0	0	0	0	504	1	
13	0	0	0	0	506	1	
14	0	0	0	0	509	1	
15	0	0	0	0	508	1	
0	0	0	0	0	503	1	
1	0	0	0	0	512	3	
2	0	0	0	0	513	1	
3	0	0	0	0	508	1	
4	0	0	0	0	506	1	
5	0	0	0	0	508	1	
6	0	0	0	0	502	1	
7	0	0	0	0	505	1	
8	0	0	0	0	507	1	
9	0	0	0	0	500	3	
10	0	0	0	0	498	1	
11	0	0	0	0	498	1	
12	0	0	0	0	496	1	
13	0	0	0	0	506	1	
14	0	0	0	0	518	1	
15	0	0	0	0	523	1	
0	0	0	0	0	535	2	
1	0	0	0	0	521	3	
2	0	0	0	0	511	1	
3	0	0	0	0	510	1	
4	0	0	0	0	502	1	
5	0	0	0	0	503	1	
6	0	0	0	0	508	1	
7	0	0	0	0	507	1	
8	0	0	0	0	499	2	
9	0	0	0	0	498	3	
10	0	0	0	0	504	1	
11	0	0	0	0	503	1	
12	0	0	0	0	504	1	
13	0	0	0	0	514	1	
14	0	0	0	0	541	2	
15	0	0	0	0	538	2	
0	0	0	0	0	519	1	
1	0	0	0	0	510	2	
2	0	0	0	0	503	1	
3	0	0	0	0	503	1	
4	0	0	0	0	506	1	
5	0	0	0	0	511	1	
6	0	0	0	0	509	1	
7	0	0	0	0	508	1	
8	0	0	0	0	508	1	
9	0	0	0	0	499	1	
10	0	0	0	0	499	1	
11	0	0	0	0	506	1	
12	0	0	0	0	508	1	
13	0	0	0	0	509	1	
14	0	0	0	0	513	1	
15	0	0	0	0	515	1	
0	0	0	0	0	513	1	
1	0	0	0	0	516	3	
2	0	0	0	0	515	1	
3	0	0	0	0	509	1	
4	0	0	0	0	510	1	
5	0	0	0	0	508	1	
6	0	0	0	0	509	1	
7	0	0	0	0	508	1	
8	0	0	0	0	504	1	
9	0	0	0	0	503	3	
10	0	0	0	0	507	1	
11	0	0	0	0	504	1	
12	0	0	0	0	502	1	
13	0	0	0	0	499	1	
14	0	0	0	0	503	1	
15	0	0	0	0	516	1	
0	0	0	0	0	528	2	
1	0	0	0	0	524	3	
2	0	0	0	0	520	1	
3	0	0	0	0	504	1	
4	0	0	0	0	502	1	
5	0	0	0	0	511	1	
6	0	0	0	0	514	1	
7	0	0	0	0	514	1	
8	0	0	0	0	518	2	
9	0	0	0	0	513	3	
10	0	0	0	0	506	1	
11	0	0	0	0	507	1	
12	0	0	0	0	496	1	
13	0	0	0	0	488	1	
14	0	0	0	0	497	1	
15	0	0	0	0	512	1	
0	0	0	0	0	502	1	
1	0	0	0	0	517	3	
2	0	0	0	0	539	2	
3	0	0	0	0	526	2	
4	0	0	0	0	511	2	
5	0	0	0	0	513	1	
6	0	0	0	0	510	1	
7	0	0	0	0	506	1	
8	0	0	0	0	508	1	
9	0	0	0	0	508	3	
10	0	0	0	0	511	1	
11	0	0	0	0	510	1	
12	0	0	0	0	513	1	
13	0	0	0	0	511	1	
14	0	0	0	0	506	1	
15	0	0	0	0	504	1	
0	0	0	0	0	507	1	
1	0	0	0	0	511	3	
2	0	0	0	0	508	1	
3	0	0	0	0	506	1	
4	0	0	0	0	496	1	
5	0	0	0	0	492	1	
6	0	0	0	0	499	1	
7	0	0	0	0	514	1	
8	0	0	0	0	515	2	
9	0	0	0	0	519	3	
10	0	0	0	0	514	1	
11	0	0	0	0	508	1	
12	0	0	0	0	507	1	
13	0	0	0	0	508	1	
14	0	0	0	0	511	1	
15	0	0	0	0	511	1	
0	0	0	0	0	514	2	
1	0	0	0	0	519	3	
2	0	0	0	0	509	1	
3	0	0	0	0	506	1	
4	0	0	0	0	503	1	
5	0	0	0	0	497	1	
6	0	0	0	0	504	1	
7	0	0	0	0	522	2	
8	0	0	0	0	532	2	
9	0	0	0	0	515	3	
10	0	0	0	0	503	1	
11	0	0	0	0	500	1	
12	0	0	0	0	513	1	
13	0	0	0	0	505	1	
14	0	0	0	0	496	1	
15	0	0	0	0	494	1	
0	0	0	0	0	497	2	
1	0	0	0	0	511	3	
2	0	0	0	0	524	1	
3	0	0	0	0	531	2	
4	0	0	0	0	531	2	
5	0	0	0	0	527	1	
6	0	0	0	0	514	1	
7	0	0	0	0	505	1	
8	0	0	0	0	506	1	
9	0	0	0	0	511	2	
10	0	0	0	0	507	1	
11	0	0	0	0	506	1	
12	0	0	0	0	500	1	
13	0	0	0	0	496	1	
14	0	0	0	0	498	1	
15	0	0	0	0	503	1	
0	0	0	0	0	505	1	
1	0	0	0	0	508	2	
2	0	0	0	0	507	1	
3	0	0	0	0	505	1	
4	0	0	0	0	505	1	
5	0	0	0	0	515	1	
6	0	0	0	0	516	1	
7	0	0	0	0	516	1	
8	0	0	0	0	512	1	
9	0	0	0	0	511	2	
10	0	0	0	0	513	1	
11	0	0	0	0	504	1	
12	0	0	0	0	504	1	
13	0	0	0	0	507	1	
14	0	0	0	0	516	1	
15	0	0	0	0	508	1	
0	0	0	0	0	512	2	
1	0	0	0	0	521	3	
2	0	0	0	0	517	1	
3	0	0	0	0	515	1	
4	0	0	0	0	515	1	
5	0	0	0	0	505	1	
6	0	0	0	0	505	1	
7	0	0	0	0	515	1	
8	0	0	0	0	510	2	
9	0	0	0	0	505	3	
10	0	0	0	0	502	1	
11	0	0	0	0	497	1	
12	0	0	0	0	506	1	
13	0	0	0	0	519	1	
14	0	0	0	0	521	1	
15	0	0	0	0	516	1	
0	0	0	0	0	503	1	
1	0	0	0	0	507	3	
2	0	0	0	0	497	1	
3	0	0	0	0	492	1	
4	0	0	0	0	496	1	
5	0	0	0	0	517	1	
6	0	0	0	0	527	2	
7	0	0	0	0	518	1	
8	0	0	0	0	511	2	
9	0	0	0	0	507	3	
10	0	0	0	0	505	1	
11	0	0	0	0	506	1	
12	0	0	0	0	507	1	
13	0	0	0	0	504	1	
14	0	0	0	0	505	1	
15	0	0	0	0	517	1	
0	0	0	0	0	514	2	
1	0	0	0	0	509	3	
2	0	0	0	0	507	1	
3	0	0	0	0	517	1	
4	0	0	0	0	524	1	
5	0	0	0	0	522	1	
6	0	0	0	0	514	1	
7	0	0	0	0	508	1	
8	0	0	0	0	507	2	
9	0	0	0	0	502	3	
10	0	0	0	0	503	1	
11	0	0	0	0	501	1	
12	0	0	0	0	511	1	
13	0	0	0	0	514	1	
14	0	0	0	0	510	1	
15	0	0	0	0	508	1	
0	0	0	0	0	510	2	
1	0	0	0	0	514	3	
2	0	0	0	0	515	2	
3	0	0	0	0	514	1	
4	0	0	0	0	499	1	
5	0	0	0	0	487	1	
6	0	0	0	0	494	1	
7	0	0	0	0	503	1	
8	0	0	0	0	518	2	
9	0	0	0	0	518	3	
10	0	0	0	0	519	1	
11	0	0	0	0	528	2	
12	0	0	0	0	530	2	
13	0	0	0	0	516	1	
14	0	0	0	0	500	1	
15	0	0	0	0	496	1	
0	0	0	0	0	496	1	
1	0	0	0	0	502	3	
2	0	0	0	0	506	1	
3	0	0	0	0	503	1	
4	0	0	0	0	507	1	
5	0	0	0	0	507	1	
6	0	0	0	0	510	1	
7	0	0	0	0	514	1	
8	0	0	0	0	505	1	
9	0	0	0	0	496	3	
10	0	0	0	0	509	1	
11	0	0	0	0	526	2	
12	0	0	0	0	538	2	
13	0	0	0	0	530	1	
14	0	0	0	0	519	1	
15	0	0	0	0	512	1	
0	0	0	0	0	505	1	
1	0	0	0	0	505	3	
2	0	0	0	0	503	1	
3	0	0	0	0	503	1	
4	0	0	0	0	504	1	
5	0	0	0	0	504	1	
6	0	0	0	0	501	1	
7	0	0	0	0	499	1	
8	0	0	0	0	499	1	
9	0	0	0	0	509	2	
10	0	0	0	0	523	1	
11	0	0	0	0	520	1	
12	0	0	0	0	513	1	
13	0	0	0	0	512	1	
14	0	0	0	0	514	1	
15	0	0	0	0	506	1	
0	0	0	0	0	489	1	
1	0	0	0	0	487	1	
2	0	0	0	0	488	1	
3	0	0	0	0	494	1	
4	0	0	0	0	507	1	
5	0	0	0	0	522	1	
6	0	0	0	0	524	2	
7	0	0	0	0	520	1	
8	0	0	0	0	514	1	
9	0	0	0	0	519	2	
10	0	0	0	0	521	1	
11	0	0	0	0	516	1	
12	0	0	0	0	528	2	
13	0	0	0	0	518	1	
14	0	0	0	0	507	1	
15	0	0	0	0	507	1	
0	0	0	0	0	503	1	
1	0	0	0	0	496	3	
2	0	0	0	0	494	1	
3	0	0	0	0	512	1	
4	0	0	0	0	519	1	
5	0	0	0	0	511	1	
6	0	0	0	0	509	1	
7	0	0	0	0	501	1	
8	0	0	0	0	500	1	
9	0	0	0	0	492	3	
10	0	0	0	0	505	1	
11	0	0	0	0	511	1	
12	0	0	0	0	526	2	
13	0	0	0	0	536	1	
14	0	0	0	0	525	1	
15	0	0	0	0	515	1	
0	0	0	0	0	507	1	
1	0	0	0	0	503	3	
2	0	0	0	0	504	1	
3	0	0	0	0	508	1	
4	0	0	0	0	505	1	
5	0	0	0	0	502	1	
6	0	0	0	0	494	1	
7	0	0	0	0	504	1	
8	0	0	0	0	512	2	
9	0	0	0	0	529	3	
10	0	0	0	0	522	2	
11	0	0	0	0	507	1	
12	0	0	0	0	500	1	
13	0	0	0	0	504	1	
14	0	0	0	0	504	1	
15	0	0	0	0	507	1	
0	0	0	0	0	510	2	
1	0	0	0	0	512	3	
2	0	0	0	0	516	1	
3	0	0	0	0	512	1	
4	0	0	0	0	515	1	
5	0	0	0	0	511	1	
6	0	0	0	0	509	1	
7	0	0	0	0	504	1	
8	0	0	0	0	501	2	
9	0	0	0	0	502	3	
10	0	0	0	0	509	1	
11	0	0	0	0	513	1	
12	0	0	0	0	512	1	
13	0	0	0	0	511	1	
14	0	0	0	0	505	1	
15	0	0	0	0	511	1	
0	0	0	0	0	501	2	
1	0	0	0	0	499	3	
2	0	0	0	0	505	1	
3	0	0	0	0	510	1	
4	0	0	0	0	512	1	
5	0	0	0	0	519	1	
6	0	0	0	0	518	1	
7	0	0	0	0	506	1	
8	0	0	0	0	503	1	
9	0	0	0	0	515	3	
10	0	0	0	0	519	2	
11	0	0	0	0	515	1	
12	0	0	0	0	508	1	
13	0	0	0	0	508	1	
14	0	0	0	0	513	1	
15	0	0	0	0	510	1	
0	0	0	0	0	502	1	
1	0	0	0	0	496	3	
2	0	0	0	0	499	1	
3	0	0	0	0	496	1	
4	0	0	0	0	497	1	
5	0	0	0	0	509	1	
6	0	0	0	0	519	1	
7	0	0	0	0	520	1	
8	0	0	0	0	520	2	
9	0	0	0	0	515	3	
10	0	0	0	0	524	1	
11	0	0	0	0	532	2	
12	0	0	0	0	536	2	
13	0	0	0	0	525	1	
14	0	0	0	0	520	1	
15	0	0	0	0	514	1	
0	0	0	0	0	508	2	
1	0	0	0	0	503	3	
2	0	0	0	0	496	1	
3	0	0	0	0	487	1	
4	0	0	0	0	490	1	
5	0	0	0	0	496	1	
6	0	0	0	0	493	1	
7	0	0	0	0	491	1	
8	0	0	0	0	499	1	
9	0	0	0	0	508	2	
10	0	0	0	0	503	1	
11	0	0	0	0	509	1	
12	0	0	0	0	508	1	
13	0	0	0	0	508	1	
14	0	0	0	0	505	1	
15	0	0	0	0	506	1	
0	0	0	0	0	515	1	
1	0	0	0	0	524	2	
2	0	0	0	0	532	2	
3	0	0	0	0	521	1	
4	0	0	0	0	510	1	
5	0	0	0	0	529	1	
6	0	0	0	0	531	2	
7	0	0	0	0	512	1	
8	0	0	0	0	504	1	
9	0	0	0	0	499	3	
10	0	0	0	0	498	1	
11	0	0	0	0	502	1	
12	0	0	0	0	511	1	
13	0	0	0	0	520	1	
14	0	0	0	0	512	1	
15	0	0	0	0	504	1	
0	0	0	0	0	504	1	
1	0	0	0	0	506	3	
2	0	0	0	0	503	1	
3	0	0	0	0	503	1	
4	0	0	0	0	519	2	
5	0	0	0	0	515	1	
6	0	0	0	0	509	1	
7	0	0	0	0	508	1	
8	0	0	0	0	509	2	
9	0	0	0	0	511	3	
10	0	0	0	0	512	1	
11	0	0	0	0	505	1	
12	0	0	0	0	511	1	
13	0	0	0	0	513	1	
14	0	0	0	0	511	1	
15	0	0	0	0	511	1	
0	0	0	0	0	491	1	
1	0	0	0	0	486	3	
2	0	0	0	0	504	1	
3	0	0	0	0	507	1	
4	0	0	0	0	520	1	
5	0	0	0	0	557	2	
6	0	0	0	0	541	2	
7	0	0	0	0	518	1	
8	0	0	0	0	506	1	
9	0	0	0	0	501	3	
10	0	0	0	0	494	1	
11	0	0	0	0	493	1	
12	0	0	0	0	495	1	
13	0	0	0	0	494	1	
14	0	0	0	0	510	1	
15	0	0	0	0	521	1	
0	0	0	0	0	503	1	
1	0	0	0	0	487	3	
2	0	0	0	0	489	1	
3	0	0	0	0	507	1	
4	0	0	0	0	536	2	
5	0	0	0	0	531	1	
6	0	0	0	0	524	2	
7	0	0	0	0	521	2	
8	0	0	0	0	514	2	
9	0	0	0	0	512	3	
10	0	0	0	0	509	1	
11	0	0	0	0	512	1	
12	0	0	0	0	512	1	
13	0	0	0	0	505	1	
14	0	0	0	0	504	1	
15	0	0	0	0	506	1	
0	0	0	0	0	509	2	
1	0	0	0	0	502	3	
2	0	0	0	0	497	1	
3	0	0	0	0	501	1	
4	0	0	0	0	502	1	
5	0	0	0	0	504	1	
6	0	0	0	0	502	1	
7	0	0	0	0	496	1	
8	0	0	0	0	497	1	
9	0	0	0	0	495	3	
10	0	0	0	0	511	1	
11	0	0	0	0	530	2	
12	0	0	0	0	536	2	
13	0	0	0	0	528	2	
14	0	0	0	0	520	1	
15	0	0	0	0	510	1	
0	0	0	0	0	513	2	
1	0	0	0	0	513	3	
2	0	0	0	0	512	2	
3	0	0	0	0	508	1	
4	0	0	0	0	510	1	
5	0	0	0	0	528	1	
6	0	0	0	0	528	2	
7	0	0	0	0	516	1	
8	0	0	0	0	501	1	
9	0	0	0	0	507	3	
10	0	0	0	0	504	1	
11	0	0	0	0	505	1	
12	0	0	0	0	512	1	
13	0	0	0	0	504	1	
14	0	0	0	0	496	1	
15	0	0	0	0	508	1	
0	0	0	0	0	511	1	
1	0	0	0	0	509	2	
2	0	0	0	0	515	1	
3	0	0	0	0	517	1	
4	0	0	0	0	503	1	
5	0	0	0	0	499	1	
6	0	0	0	0	506	1	
7	0	0	0	0	504	1	
8	0	0	0	0	490	1	
9	0	0	0	0	492	1	
10	0	0	0	0	494	1	
11	0	0	0	0	511	1	
12	0	0	0	0	532	2	
13	0	0	0	0	525	1	
14	0	0	0	0	519	1	
15	0	0	0	0	518	1	
0	0	0	0	0	510	1	
1	0	0	0	0	509	2	
2	0	0	0	0	513	1	
3	0	0	0	0	511	1	
4	0	0	0	0	503	1	
5	0	0	0	0	502	1	
6	0	0	0	0	507	1	
7	0	0	0	0	505	1	
8	0	0	0	0	504	2	
9	0	0	0	0	507	3	
10	0	0	0	0	505	1	
11	0	0	0	0	511	1	
12	0	0	0	0	510	1	
13	0	0	0	0	513	1	
14	0	0	0	0	516	1	
15	0	0	0	0	512	1	
0	0	0	0	0	511	2	
1	0	0	0	0	514	3	
2	0	0	0	0	509	1	
3	0	0	0	0	501	1	
4	0	0	0	0	503	1	
5	0	0	0	0	504	1	
6	0	0	0	0	515	1	
7	0	0	0	0	514	1	
8	0	0	0	0	503	1	
9	0	0	0	0	500	3	
10	0	0	0	0	511	1	
11	0	0	0	0	527	2	
12	0	0	0	0	526	2	
13	0	0	0	0	516	1	
14	0	0	0	0	508	1	
15	0	0	0	0	508	1	
0	0	0	0	0	499	1	
1	0	0	0	0	505	3	
2	0	0	0	0	518	1	
3	0	0	0	0	507	1	
4	0	0	0	0	495	1	
5	0	0	0	0	504	1	
6	0	0	0	0	505	1	
7	0	0	0	0	510	1	
8	0	0	0	0	531	2	
9	0	0	0	0	528	3	
10	0	0	0	0	518	1	
11	0	0	0	0	515	2	
12	0	0	0	0	505	1	
13	0	0	0	0	495	1	
14	0	0	0	0	498	1	
15	0	0	0	0	505	1	
0	0	0	0	0	506	2	
1	0	0	0	0	504	3	
2	0	0	0	0	507	1	
3	0	0	0	0	500	1	
4	0	0	0	0	504	1	
5	0	0	0	0	510	1	
6	0	0	0	0	510	1	
7	0	0	0	0	508	1	
8	0	0	0	0	521	2	
9	0	0	0	0	523	3	
10	0	0	0	0	518	2	
11	0	0	0	0	516	1	
12	0	0	0	0	516	1	
13	0	0	0	0	510	1	
14	0	0	0	0	506	1	
15	0	0	0	0	505	1	
0	0	0	0	0	506	2	
1	0	0	0	0	510	3	
2	0	0	0	0	508	1	
3	0	0	0	0	503	1	
4	0	0	0	0	506	1	
5	0	0	0	0	516	1	
6	0	0	0	0	510	1	
7	0	0	0	0	514	1	
8	0	0	0	0	515	2	
9	0	0	0	0	503	3	
10	0	0	0	0	495	1	
11	0	0	0	0	497	1	
12	0	0	0	0	502	1	
13	0	0	0	0	504	1	
14	0	0	0	0	521	2	
15	0	0	0	0	529	2	
0	0	0	0	0	515	2	
1	0	0	0	0	501	3	
2	0	0	0	0	497	1	
3	0	0	0	0	494	1	
4	0	0	0	0	499	1	
5	0	0	0	0	512	1	
6	0	0	0	0	503	1	
7	0	0	0	0	508	1	
8	0	0	0	0	531	2	
9	0	0	0	0	522	3	
10	0	0	0	0	518	1	
11	0	0	0	0	535	2	
12	0	0	0	0	529	2	
13	0	0	0	0	517	1	
14	0	0	0	0	504	1	
15	0	0	0	0	494	1	
0	0	0	0	0	498	1	
1	0	0	0	0	503	2	
2	0	0	0	0	503	1	
3	0	0	0	0	501	1	
4	0	0	0	0	518	1	
5	0	0	0	0	521	1	
6	0	0	0	0	504	1	
7	0	0	0	0	503	1	
8	0	0	0	0	500	1	
9	0	0	0	0	498	2	
10	0	0	0	0	496	1	
11	0	0	0	0	493	1	
12	0	0	0	0	484	1	
13	0	0	0	0	479	1	
14	0	0	0	0	499	1	
15	0	0	0	0	522	1	
0	0	0	0	0	541	2	
1	0	0	0	0	544	2	
2	0	0	0	0	540	2	
3	0	0	0	0	534	2	
4	0	0	0	0	531	2	
5	0	0	0	0	523	1	
6	0	0	0	0	515	1	
7	0	0	0	0	497	1	
8	0	0	0	0	488	1	
9	0	0	0	0	486	3	
10	0	0	0	0	499	1	
11	0	0	0	0	509	1	
12	0	0	0	0	535	2	
13	0	0	0	0	533	1	
14	0	0	0	0	505	1	
15	0	0	0	0	499	1	
0	0	0	0	0	503	1	
1	0	0	0	0	505	3	
2	0	0	0	0	512	1	
3	0	0	0	0	512	1	
4	0	0	0	0	512	1	
5	0	0	0	0	504	1	
6	0	0	0	0	497	1	
7	0	0	0	0	484	1	
8	0	0	0	0	483	1	
9	0	0	0	0	483	3	
10	0	0	0	0	497	1	
11	0	0	0	0	503	1	
12	0	0	0	0	518	1	
13	0	0	0	0	528	1	
14	0	0	0	0	526	1	
15	0	0	0	0	511	1	
0	0	0	0	0	505	1	
1	0	0	0	0	510	3	
2	0	0	0	0	519	1	
3	0	0	0	0	536	2	
4	0	0	0	0	536	1	
5	0	0	0	0	521	1	
6	0	0	0	0	512	1	
7	0	0	0	0	501	1	
8	0	0	0	0	504	1	
9	0	0	0	0	506	3	
10	0	0	0	0	508	1	
11	0	0	0	0	504	1	
12	0	0	0	0	500	1	
13	0	0	0	0	498	1	
14	0	0	0	0	508	1	
15	0	0	0	0	515	1	
0	0	0	0	0	519	2	
1	0	0	0	0	512	3	
2	0	0	0	0	513	1	
3	0	0	0	0	512	1	
4	0	0	0	0	510	1	
5	0	0	0	0	506	1	
6	0	0	0	0	498	1	
7	0	0	0	0	504	1	
8	0	0	0	0	512	2	
9	0	0	0	0	515	3	
10	0	0	0	0	506	1	
11	0	0	0	0	501	1	
12	0	0	0	0	505	1	
13	0	0	0	0	503	1	
14	0	0	0	0	507	1	
15	0	0	0	0	511	1	
0	0	0	0	0	512	2	
1	0	0	0	0	512	3	
2	0	0	0	0	519	1	
3	0	0	0	0	524	1	
4	0	0	0	0	513	1	
5	0	0	0	0	504	1	
6	0	0	0	0	494	1	
7	0	0	0	0	492	1	
8	0	0	0	0	497	1	
9	0	0	0	0	497	3	
10	0	0	0	0	487	1	
11	0	0	0	0	490	1	
12	0	0	0	0	505	1	
13	0	0	0	0	519	1	
14	0	0	0	0	548	2	
15	0	0	0	0	540	1	
0	0	0	0	0	521	2	
1	0	0	0	0	520	3	
2	0	0	0	0	527	2	
3	0	0	0	0	524	2	
4	0	0	0	0	518	1	
5	0	0	0	0	518	1	
6	0	0	0	0	521	1	
7	0	0	0	0	516	1	
8	0	0	0	0	501	1	
9	0	0	0	0	497	3	
10	0	0	0	0	502	1	
11	0	0	0	0	493	1	
12	0	0	0	0	478	1	
13	0	0	0	0	471	1	
14	0	0	0	0	480	1	
15	0	0	0	0	500	1	
0	0	0	0	0	506	1	
1	0	0	0	0	508	2	
2	0	0	0	0	525	2	
3	0	0	0	0	538	2	
4	0	0	0	0	543	2	
5	0	0	0	0	531	1	
6	0	0	0	0	525	2	
7	0	0	0	0	521	1	
8	0	0	0	0	520	1	
9	0	0	0	0	525	2	
10	0	0	0	0	523	1	
11	0	0	0	0	508	1	
12	0	0	0	0	500	1	
13	0	0	0	0	499	1	
14	0	0	0	0	489	1	
15	0	0	0	0	483	1	
0	0	0	0	0	489	1	
1	0	0	0	0	498	3	
2	0	0	0	0	507	1	
3	0	0	0	0	520	2	
4	0	0	0	0	517	1	
5	0	0	0	0	506	1	
6	0	0	0	0	502	1	
7	0	0	0	0	498	1	
8	0	0	0	0	495	1	
9	0	0	0	0	496	3	
10	0	0	0	0	459	1	
11	0	0	0	0	438	1	
12	0	0	0	0	467	1	
13	0	0	0	0	506	1	
14	0	0	0	0	541	2	
15	0	0	0	0	577	1	
0	0	0	0	0	581	2	
1	0	0	0	0	575	4	
2	0	0	0	0	555	2	
3	0	0	0	0	531	2	
4	0	0	0	0	524	1	
5	0	0	0	0	517	1	
6	0	0	0	0	514	1	
7	0	0	0	0	511	1	
8	0	0	0	0	505	1	
9	0	0	0	0	494	3	
10	0	0	0	0	485	1	
11	0	0	0	0	487	1	
12	0	0	0	0	492	1	
13	0	0	0	0	492	1	
14	0	0	0	0	502	1	
15	0	0	0	0	509	1	
0	0	0	0	0	505	1	
1	0	0	0	0	504	3	
2	0	0	0	0	509	1	
3	0	0	0	0	513	1	
4	0	0	0	0	506	1	
5	0	0	0	0	504	1	
6	0	0	0	0	496	1	
7	0	0	0	0	496	1	
8	0	0	0	0	513	2	
9	0	0	0	0	511	3	
10	0	0	0	0	506	1	
11	0	0	0	0	500	1	
12	0	0	0	0	495	1	
13	0	0	0	0	498	1	
14	0	0	0	0	499	1	
15	0	0	0	0	507	1	
0	0	0	0	0	519	2	
1	0	0	0	0	519	3	
2	0	0	0	0	516	1	
3	0	0	0	0	526	1	
4	0	0	0	0	536	1	
5	0	0	0	0	521	1	
6	0	0	0	0	531	2	
7	0	0	0	0	516	1	
8	0	0	0	0	488	1	
9	0	0	0	0	472	3	
10	0	0	0	0	483	1	
11	0	0	0	0	498	1	
12	0	0	0	0	519	1	
13	0	0	0	0	554	2	
14	0	0	0	0	546	2	
15	0	0	0	0	525	2	
0	0	0	0	0	503	2	
1	0	0	0	0	498	3	
2	0	0	0	0	498	1	
3	0	0	0	0	511	1	
4	0	0	0	0	516	1	
5	0	0	0	0	513	1	
6	0	0	0	0	514	1	
7	0	0	0	0	521	1	
8	0	0	0	0	514	2	
9	0	0	0	0	509	3	
10	0	0	0	0	510	1	
11	0	0	0	0	502	1	
12	0	0	0	0	497	1	
13	0	0	0	0	500	1	
14	0	0	0	0	495	1	
15	0	0	0	0	485	1	
0	0	0	0	0	488	1	
1	0	0	0	0	496	3	
2	0	0	0	0	513	1	
3	0	0	0	0	517	1	
4	0	0	0	0	512	1	
5	0	0	0	0	527	1	
6	0	0	0	0	518	1	
7	0	0	0	0	510	1	
8	0	0	0	0	514	1	
9	0	0	0	0	521	2	
10	0	0	0	0	518	1	
11	0	0	0	0	517	1	
12	0	0	0	0	526	2	
13	0	0	0	0	519	1	
14	0	0	0	0	508	1	
15	0	0	0	0	511	1	
0	0	0	0	0	511	2	
1	0	0	0	0	505	2	
2	0	0	0	0	512	1	
3	0	0	0	0	510	1	
4	0	0	0	0	499	1	
5	0	0	0	0	499	1	
6	0	0	0	0	499	1	
7	0	0	0	0	503	1	
8	0	0	0	0	497	1	
9	0	0	0	0	473	2	
10	0	0	0	0	480	1	
11	0	0	0	0	499	1	
12	0	0	0	0	518	2	
13	0	0	0	0	518	1	
14	0	0	0	0	514	1	
15	0	0	0	0	496	1	
0	0	0	0	0	499	1	
1	0	0	0	0	525	3	
2	0	0	0	0	558	2	
