# OpenSignals Text File Format. Version 1
# {"98:D3:71:FE:38:C0": {"position": 0, "device": "bitalino_rev", "device name": "98:D3:71:FE:38:C0", "device connection": "98:D3:71:FE:38:C0", "sampling rate": 1000, "resolution": [4, 1, 1, 1, 1, 10, 10], "firmware version": 1282, "comments": "FUERCITAS", "keywords": "", "mode": 0, "sync interval": 2, "date": "2026-9-4", "time": "12:20:17.897", "channels": [1, 2], "sensor": ["EMGBITREV", "RAW"], "label": ["A1", "A2"], "column": ["nSeq", "I1", "I2", "O1", "O2", "A1", "A2"], "special": [{}, {}], "digital IO": [0, 0, 1, 1]}}
# EndOfHeader
0	0	0	0	0	511	1	
1	0	0	0	0	510	1	
2	0	0	0	0	508	1	
3	0	0	0	0	510	1	
4	0	0	0	0	509	3	
5	0	0	0	0	508	1	
6	0	0	0	0	506	1	
7	0	0	0	0	504	1	
8	0	0	0	0	508	1	
9	0	0	0	0	508	1	
10	0	0	0	0	508	1	
11	0	0	0	0	507	2	
12	0	0	0	0	508	3	
13	0	0	0	0	508	1	
14	0	0	0	0	508	1	
15	0	0	0	0	510	1	
0	0	0	0	0	512	1	
1	0	0	0	0	511	1	
2	0	0	0	0	511	1	
3	0	0	0	0	511	2	
4	0	0	0	0	510	3	
5	0	0	0	0	511	1	
6	0	0	0	0	509	1	
7	0	0	0	0	510	1	
8	0	0	0	0	510	1	
9	0	0	0	0	509	1	
10	0	0	0	0	511	1	
11	0	0	0	0	511	1	
12	0	0	0	0	510	3	
13	0	0	0	0	512	1	
14	0	0	0	0	511	1	
15	0	0	0	0	509	1	
0	0	0	0	0	508	1	
1	0	0	0	0	508	1	
2	0	0	0	0	508	1	
3	0	0	0	0	507	2	
4	0	0	0	0	508	3	
5	0	0	0	0	510	1	
6	0	0	0	0	509	1	
7	0	0	0	0	509	1	
8	0	0	0	0	508	1	
9	0	0	0	0	509	1	
10	0	0	0	0	509	1	
11	0	0	0	0	508	1	
12	0	0	0	0	508	2	
13	0	0	0	0	509	1	
14	0	0	0	0	508	1	
15	0	0	0	0	512	1	
0	0	0	0	0	512	1	
1	0	0	0	0	511	1	
2	0	0	0	0	510	1	
3	0	0	0	0	509	1	
4	0	0	0	0	511	2	
5	0	0	0	0	508	1	
6	0	0	0	0	508	1	
7	0	0	0	0	508	1	
8	0	0	0	0	510	1	
9	0	0	0	0	508	1	
10	0	0	0	0	509	1	
11	0	0	0	0	508	1	
12	0	0	0	0	508	3	
13	0	0	0	0	509	1	
14	0	0	0	0	508	1	
15	0	0	0	0	509	1	
0	0	0	0	0	511	1	
1	0	0	0	0	510	1	
2	0	0	0	0	509	1	
3	0	0	0	0	510	2	
4	0	0	0	0	508	3	
5	0	0	0	0	509	1	
6	0	0	0	0	509	1	
7	0	0	0	0	510	1	
8	0	0	0	0	511	1	
9	0	0	0	0	509	1	
10	0	0	0	0	508	1	
11	0	0	0	0	511	2	
12	0	0	0	0	508	3	
13	0	0	0	0	511	1	
14	0	0	0	0	512	1	
15	0	0	0	0	509	1	
0	0	0	0	0	508	1	
1	0	0	0	0	510	1	
2	0	0	0	0	511	1	
3	0	0	0	0	512	2	
4	0	0	0	0	511	3	
5	0	0	0	0	511	1	
6	0	0	0	0	510	1	
7	0	0	0	0	508	1	
8	0	0	0	0	507	1	
9	0	0	0	0	508	1	
10	0	0	0	0	510	1	
11	0	0	0	0	507	1	
12	0	0	0	0	508	3	
13	0	0	0	0	510	1	
14	0	0	0	0	508	1	
15	0	0	0	0	511	1	
0	0	0	0	0	511	1	
1	0	0	0	0	508	1	
2	0	0	0	0	510	1	
3	0	0	0	0	510	1	
4	0	0	0	0	507	3	
5	0	0	0	0	508	1	
6	0	0	0	0	507	1	
7	0	0	0	0	510	1	
8	0	0	0	0	510	1	
9	0	0	0	0	509	1	
10	0	0	0	0	508	1	
11	0	0	0	0	511	2	
12	0	0	0	0	511	3	
13	0	0	0	0	511	1	
14	0	0	0	0	508	1	
15	0	0	0	0	507	1	
0	0	0	0	0	507	1	
1	0	0	0	0	507	1	
2	0	0	0	0	507	1	
3	0	0	0	0	510	2	
4	0	0	0	0	509	3	
5	0	0	0	0	508	1	
6	0	0	0	0	511	1	
7	0	0	0	0	512	1	
8	0	0	0	0	512	1	
9	0	0	0	0	511	1	
10	0	0	0	0	510	1	
11	0	0	0	0	512	1	
12	0	0	0	0	511	3	
13	0	0	0	0	509	1	
14	0	0	0	0	512	1	
15	0	0	0	0	509	1	
0	0	0	0	0	508	1	
1	0	0	0	0	507	1	
2	0	0	0	0	508	1	
3	0	0	0	0	508	2	
4	0	0	0	0	508	3	
5	0	0	0	0	507	1	
6	0	0	0	0	508	1	
7	0	0	0	0	509	1	
8	0	0	0	0	511	1	
9	0	0	0	0	511	1	
10	0	0	0	0	511	1	
11	0	0	0	0	511	1	
12	0	0	0	0	512	3	
13	0	0	0	0	512	1	
14	0	0	0	0	511	1	
15	0	0	0	0	508	1	
0	0	0	0	0	507	1	
1	0	0	0	0	507	1	
2	0	0	0	0	507	1	
3	0	0	0	0	506	2	
4	0	0	0	0	507	2	
5	0	0	0	0	508	1	
6	0	0	0	0	511	1	
7	0	0	0	0	510	1	
8	0	0	0	0	511	1	
9	0	0	0	0	511	1	
10	0	0	0	0	510	1	
11	0	0	0	0	510	2	
12	0	0	0	0	507	2	
13	0	0	0	0	510	1	
14	0	0	0	0	509	1	
15	0	0	0	0	506	1	
0	0	0	0	0	508	1	
1	0	0	0	0	507	1	
2	0	0	0	0	508	1	
3	0	0	0	0	506	1	
4	0	0	0	0	508	2	
5	0	0	0	0	512	1	
6	0	0	0	0	511	1	
7	0	0	0	0	511	1	
8	0	0	0	0	510	1	
9	0	0	0	0	508	1	
10	0	0	0	0	510	2	
11	0	0	0	0	509	2	
12	0	0	0	0	511	3	
13	0	0	0	0	512	1	
14	0	0	0	0	509	1	
15	0	0	0	0	506	1	
0	0	0	0	0	510	1	
1	0	0	0	0	508	1	
2	0	0	0	0	510	1	
3	0	0	0	0	507	1	
4	0	0	0	0	508	3	
5	0	0	0	0	512	1	
6	0	0	0	0	511	1	
7	0	0	0	0	511	1	
8	0	0	0	0	510	1	
9	0	0	0	0	511	1	
10	0	0	0	0	509	1	
11	0	0	0	0	511	2	
12	0	0	0	0	510	3	
13	0	0	0	0	509	1	
14	0	0	0	0	509	1	
15	0	0	0	0	509	1	
0	0	0	0	0	510	1	
1	0	0	0	0	508	1	
2	0	0	0	0	510	1	
3	0	0	0	0	508	2	
4	0	0	0	0	508	3	
5	0	0	0	0	508	1	
6	0	0	0	0	508	1	
7	0	0	0	0	510	1	
8	0	0	0	0	512	1	
9	0	0	0	0	511	1	
10	0	0	0	0	512	1	
11	0	0	0	0	511	2	
12	0	0	0	0	510	3	
13	0	0	0	0	509	1	
14	0	0	0	0	508	1	
15	0	0	0	0	511	1	
0	0	0	0	0	511	1	
1	0	0	0	0	510	1	
2	0	0	0	0	509	1	
3	0	0	0	0	507	1	
4	0	0	0	0	508	3	
5	0	0	0	0	511	1	
6	0	0	0	0	509	1	
7	0	0	0	0	509	1	
8	0	0	0	0	512	1	
9	0	0	0	0	510	1	
10	0	0	0	0	509	1	
11	0	0	0	0	511	1	
12	0	0	0	0	508	3	
13	0	0	0	0	510	1	
14	0	0	0	0	511	1	
15	0	0	0	0	509	1	
0	0	0	0	0	508	1	
1	0	0	0	0	508	1	
2	0	0	0	0	506	1	
3	0	0	0	0	508	2	
4	0	0	0	0	508	3	
5	0	0	0	0	508	1	
6	0	0	0	0	508	1	
7	0	0	0	0	508	1	
8	0	0	0	0	508	1	
9	0	0	0	0	508	1	
10	0	0	0	0	507	1	
11	0	0	0	0	510	1	
12	0	0	0	0	509	3	
13	0	0	0	0	511	1	
14	0	0	0	0	510	1	
15	0	0	0	0	509	1	
0	0	0	0	0	507	1	
1	0	0	0	0	506	1	
2	0	0	0	0	507	1	
3	0	0	0	0	509	2	
4	0	0	0	0	510	3	
5	0	0	0	0	511	1	
6	0	0	0	0	511	1	
7	0	0	0	0	511	1	
8	0	0	0	0	510	1	
9	0	0	0	0	511	1	
10	0	0	0	0	512	1	
11	0	0	0	0	511	2	
12	0	0	0	0	511	3	
13	0	0	0	0	513	1	
14	0	0	0	0	512	1	
15	0	0	0	0	512	1	
0	0	0	0	0	508	1	
1	0	0	0	0	509	1	
2	0	0	0	0	508	1	
3	0	0	0	0	508	1	
4	0	0	0	0	504	2	
5	0	0	0	0	507	1	
6	0	0	0	0	506	1	
7	0	0	0	0	510	1	
8	0	0	0	0	510	1	
9	0	0	0	0	508	1	
10	0	0	0	0	508	1	
11	0	0	0	0	508	1	
12	0	0	0	0	509	2	
13	0	0	0	0	512	1	
14	0	0	0	0	508	1	
15	0	0	0	0	508	1	
0	0	0	0	0	505	1	
1	0	0	0	0	508	1	
2	0	0	0	0	509	1	
3	0	0	0	0	510	1	
4	0	0	0	0	510	2	
5	0	0	0	0	509	1	
6	0	0	0	0	509	1	
7	0	0	0	0	510	1	
8	0	0	0	0	509	1	
9	0	0	0	0	509	1	
10	0	0	0	0	511	1	
11	0	0	0	0	510	2	
12	0	0	0	0	511	3	
13	0	0	0	0	510	1	
14	0	0	0	0	510	1	
15	0	0	0	0	510	1	
0	0	0	0	0	508	1	
1	0	0	0	0	510	1	
2	0	0	0	0	511	1	
3	0	0	0	0	510	2	
4	0	0	0	0	511	3	
5	0	0	0	0	512	1	
6	0	0	0	0	511	1	
7	0	0	0	0	509	1	
8	0	0	0	0	512	1	
9	0	0	0	0	510	1	
10	0	0	0	0	511	1	
11	0	0	0	0	510	2	
12	0	0	0	0	510	3	
13	0	0	0	0	511	1	
14	0	0	0	0	512	1	
15	0	0	0	0	513	1	
0	0	0	0	0	511	1	
1	0	0	0	0	508	1	
2	0	0	0	0	510	1	
3	0	0	0	0	509	2	
4	0	0	0	0	508	3	
5	0	0	0	0	509	1	
6	0	0	0	0	510	1	
7	0	0	0	0	510	1	
8	0	0	0	0	508	1	
9	0	0	0	0	507	1	
10	0	0	0	0	510	1	
11	0	0	0	0	511	2	
12	0	0	0	0	509	3	
13	0	0	0	0	510	1	
14	0	0	0	0	510	1	
15	0	0	0	0	508	1	
0	0	0	0	0	511	1	
1	0	0	0	0	509	1	
2	0	0	0	0	510	1	
3	0	0	0	0	510	2	
4	0	0	0	0	508	3	
5	0	0	0	0	509	1	
6	0	0	0	0	508	1	
7	0	0	0	0	510	1	
8	0	0	0	0	510	1	
9	0	0	0	0	508	1	
10	0	0	0	0	510	1	
11	0	0	0	0	511	2	
12	0	0	0	0	511	3	
13	0	0	0	0	509	1	
14	0	0	0	0	511	1	
15	0	0	0	0	512	1	
0	0	0	0	0	512	1	
1	0	0	0	0	510	1	
2	0	0	0	0	511	1	
3	0	0	0	0	509	1	
4	0	0	0	0	509	3	
5	0	0	0	0	510	1	
6	0	0	0	0	509	1	
7	0	0	0	0	510	1	
8	0	0	0	0	508	1	
9	0	0	0	0	508	1	
10	0	0	0	0	509	1	
11	0	0	0	0	508	1	
12	0	0	0	0	510	3	
13	0	0	0	0	507	1	
14	0	0	0	0	507	1	
15	0	0	0	0	508	1	
0	0	0	0	0	507	1	
1	0	0	0	0	507	1	
2	0	0	0	0	509	1	
3	0	0	0	0	508	2	
4	0	0	0	0	510	3	
5	0	0	0	0	510	1	
6	0	0	0	0	511	1	
7	0	0	0	0	512	1	
8	0	0	0	0	510	1	
9	0	0	0	0	511	1	
10	0	0	0	0	512	1	
11	0	0	0	0	510	2	
12	0	0	0	0	509	3	
13	0	0	0	0	510	1	
14	0	0	0	0	509	1	
15	0	0	0	0	508	1	
0	0	0	0	0	512	1	
1	0	0	0	0	512	1	
2	0	0	0	0	511	1	
3	0	0	0	0	511	1	
4	0	0	0	0	511	2	
5	0	0	0	0	511	1	
6	0	0	0	0	508	1	
7	0	0	0	0	505	1	
8	0	0	0	0	505	1	
9	0	0	0	0	507	1	
10	0	0	0	0	508	1	
11	0	0	0	0	509	1	
12	0	0	0	0	509	2	
13	0	0	0	0	510	1	
14	0	0	0	0	508	1	
15	0	0	0	0	510	1	
0	0	0	0	0	510	1	
1	0	0	0	0	511	1	
2	0	0	0	0	511	1	
3	0	0	0	0	510	1	
4	0	0	0	0	510	3	
5	0	0	0	0	508	1	
6	0	0	0	0	510	1	
7	0	0	0	0	510	1	
8	0	0	0	0	510	1	
9	0	0	0	0	508	1	
10	0	0	0	0	508	1	
11	0	0	0	0	509	2	
12	0	0	0	0	508	3	
13	0	0	0	0	508	1	
14	0	0	0	0	509	1	
15	0	0	0	0	510	1	
0	0	0	0	0	508	1	
1	0	0	0	0	508	1	
2	0	0	0	0	505	1	
3	0	0	0	0	508	2	
4	0	0	0	0	510	3	
5	0	0	0	0	511	1	
6	0	0	0	0	513	1	
7	0	0	0	0	511	1	
8	0	0	0	0	512	1	
9	0	0	0	0	513	1	
10	0	0	0	0	512	1	
11	0	0	0	0	511	2	
12	0	0	0	0	510	3	
13	0	0	0	0	511	1	
14	0	0	0	0	508	1	
15	0	0	0	0	508	1	
0	0	0	0	0	507	1	
1	0	0	0	0	506	1	
2	0	0	0	0	507	1	
3	0	0	0	0	508	2	
4	0	0	0	0	508	3	
5	0	0	0	0	511	1	
6	0	0	0	0	511	1	
7	0	0	0	0	512	1	
8	0	0	0	0	512	1	
9	0	0	0	0	510	1	
10	0	0	0	0	508	1	
11	0	0	0	0	508	2	
12	0	0	0	0	507	3	
13	0	0	0	0	509	1	
14	0	0	0	0	510	1	
15	0	0	0	0	508	1	
0	0	0	0	0	510	1	
1	0	0	0	0	509	1	
2	0	0	0	0	509	1	
3	0	0	0	0	510	2	
4	0	0	0	0	511	3	
5	0	0	0	0	509	1	
6	0	0	0	0	508	1	
7	0	0	0	0	508	1	
8	0	0	0	0	511	1	
9	0	0	0	0	511	1	
10	0	0	0	0	510	1	
11	0	0	0	0	509	2	
12	0	0	0	0	505	3	
13	0	0	0	0	505	1	
14	0	0	0	0	507	1	
15	0	0	0	0	506	1	
0	0	0	0	0	510	1	
1	0	0	0	0	511	1	
2	0	0	0	0	510	1	
3	0	0	0	0	511	2	
4	0	0	0	0	514	3	
5	0	0	0	0	511	1	
6	0	0	0	0	511	1	
7	0	0	0	0	511	1	
8	0	0	0	0	511	1	
9	0	0	0	0	511	1	
10	0	0	0	0	511	1	
11	0	0	0	0	508	1	
12	0	0	0	0	510	3	
13	0	0	0	0	510	1	
14	0	0	0	0	508	1	
15	0	0	0	0	509	1	
0	0	0	0	0	508	1	
1	0	0	0	0	510	1	
2	0	0	0	0	510	1	
3	0	0	0	0	511	2	
4	0	0	0	0	510	3	
5	0	0	0	0	510	1	
6	0	0	0	0	510	2	
7	0	0	0	0	508	1	
8	0	0	0	0	510	1	
9	0	0	0	0	511	1	
10	0	0	0	0	508	1	
11	0	0	0	0	511	2	
12	0	0	0	0	511	2	
13	0	0	0	0	511	1	
14	0	0	0	0	513	1	
15	0	0	0	0	512	1	
0	0	0	0	0	513	1	
1	0	0	0	0	515	1	
2	0	0	0	0	519	1	
3	0	0	0	0	521	1	
4	0	0	0	0	512	2	
5	0	0	0	0	527	2	
6	0	0	0	0	563	2	
7	0	0	0	0	545	2	
8	0	0	0	0	519	1	
9	0	0	0	0	505	1	
10	0	0	0	0	478	1	
11	0	0	0	0	458	1	
12	0	0	0	0	444	1	
13	0	0	0	0	455	1	
14	0	0	0	0	472	1	
15	0	0	0	0	493	1	
0	0	0	0	0	508	1	
1	0	0	0	0	513	1	
2	0	0	0	0	519	1	
3	0	0	0	0	524	2	
4	0	0	0	0	525	3	
5	0	0	0	0	522	1	
6	0	0	0	0	519	2	
7	0	0	0	0	513	1	
8	0	0	0	0	513	1	
9	0	0	0	0	510	1	
10	0	0	0	0	511	1	
11	0	0	0	0	510	2	
12	0	0	0	0	511	3	
13	0	0	0	0	511	1	
14	0	0	0	0	510	1	
15	0	0	0	0	510	1	
0	0	0	0	0	510	1	
1	0	0	0	0	512	1	
2	0	0	0	0	512	1	
3	0	0	0	0	511	2	
4	0	0	0	0	513	3	
5	0	0	0	0	511	1	
6	0	0	0	0	510	1	
7	0	0	0	0	511	1	
8	0	0	0	0	512	1	
9	0	0	0	0	511	1	
10	0	0	0	0	512	1	
11	0	0	0	0	511	2	
12	0	0	0	0	509	3	
13	0	0	0	0	510	1	
14	0	0	0	0	508	1	
15	0	0	0	0	508	1	
0	0	0	0	0	509	1	
1	0	0	0	0	510	1	
2	0	0	0	0	511	1	
3	0	0	0	0	512	2	
4	0	0	0	0	512	3	
5	0	0	0	0	512	1	
6	0	0	0	0	509	1	
7	0	0	0	0	510	1	
8	0	0	0	0	510	1	
9	0	0	0	0	508	1	
10	0	0	0	0	508	1	
11	0	0	0	0	508	2	
12	0	0	0	0	511	3	
13	0	0	0	0	509	1	
14	0	0	0	0	509	1	
15	0	0	0	0	509	1	
0	0	0	0	0	526	1	
1	0	0	0	0	545	2	
2	0	0	0	0	540	2	
3	0	0	0	0	524	2	
4	0	0	0	0	505	3	
5	0	0	0	0	484	1	
6	0	0	0	0	467	1	
7	0	0	0	0	464	0	
8	0	0	0	0	480	1	
9	0	0	0	0	495	1	
10	0	0	0	0	508	1	
11	0	0	0	0	516	2	
12	0	0	0	0	513	3	
13	0	0	0	0	514	1	
14	0	0	0	0	513	1	
15	0	0	0	0	513	1	
0	0	0	0	0	512	1	
1	0	0	0	0	512	1	
2	0	0	0	0	510	1	
3	0	0	0	0	511	2	
4	0	0	0	0	511	3	
5	0	0	0	0	513	1	
6	0	0	0	0	512	1	
7	0	0	0	0	511	1	
8	0	0	0	0	512	1	
9	0	0	0	0	513	1	
10	0	0	0	0	512	1	
11	0	0	0	0	511	2	
12	0	0	0	0	511	3	
13	0	0	0	0	512	1	
14	0	0	0	0	512	1	
15	0	0	0	0	511	1	
0	0	0	0	0	511	1	
1	0	0	0	0	510	1	
2	0	0	0	0	510	1	
3	0	0	0	0	508	1	
4	0	0	0	0	506	3	
5	0	0	0	0	509	1	
6	0	0	0	0	509	1	
7	0	0	0	0	509	1	
8	0	0	0	0	508	1	
9	0	0	0	0	510	1	
10	0	0	0	0	508	1	
11	0	0	0	0	507	1	
12	0	0	0	0	509	2	
13	0	0	0	0	510	1	
14	0	0	0	0	509	1	
15	0	0	0	0	511	1	
0	0	0	0	0	511	1	
1	0	0	0	0	509	1	
2	0	0	0	0	512	1	
3	0	0	0	0	510	1	
4	0	0	0	0	510	2	
5	0	0	0	0	510	1	
6	0	0	0	0	508	1	
7	0	0	0	0	507	1	
8	0	0	0	0	507	1	
9	0	0	0	0	504	1	
10	0	0	0	0	508	1	
11	0	0	0	0	509	1	
12	0	0	0	0	510	2	
13	0	0	0	0	511	1	
14	0	0	0	0	511	1	
15	0	0	0	0	513	1	
0	0	0	0	0	514	1	
1	0	0	0	0	510	1	
2	0	0	0	0	510	1	
3	0	0	0	0	511	2	
4	0	0	0	0	511	3	
5	0	0	0	0	511	1	
6	0	0	0	0	507	1	
7	0	0	0	0	507	1	
8	0	0	0	0	506	1	
9	0	0	0	0	509	1	
10	0	0	0	0	508	1	
11	0	0	0	0	507	2	
12	0	0	0	0	508	3	
13	0	0	0	0	510	1	
14	0	0	0	0	511	1	
15	0	0	0	0	512	1	
0	0	0	0	0	512	1	
1	0	0	0	0	514	1	
2	0	0	0	0	512	1	
3	0	0	0	0	513	2	
4	0	0	0	0	512	3	
5	0	0	0	0	511	1	
6	0	0	0	0	508	1	
7	0	0	0	0	508	1	
8	0	0	0	0	509	1	
9	0	0	0	0	511	1	
10	0	0	0	0	508	1	
11	0	0	0	0	510	2	
12	0	0	0	0	510	3	
13	0	0	0	0	512	1	
14	0	0	0	0	515	1	
15	0	0	0	0	511	1	
0	0	0	0	0	509	1	
1	0	0	0	0	508	1	
2	0	0	0	0	508	1	
3	0	0	0	0	509	1	
4	0	0	0	0	505	3	
5	0	0	0	0	504	1	
6	0	0	0	0	506	1	
7	0	0	0	0	505	1	
8	0	0	0	0	508	1	
9	0	0	0	0	507	1	
10	0	0	0	0	507	1	
11	0	0	0	0	509	1	
12	0	0	0	0	513	3	
13	0	0	0	0	511	1	
14	0	0	0	0	509	1	
15	0	0	0	0	511	1	
0	0	0	0	0	511	1	
1	0	0	0	0	509	1	
2	0	0	0	0	510	1	
3	0	0	0	0	508	2	
4	0	0	0	0	509	3	
5	0	0	0	0	508	1	
6	0	0	0	0	510	1	
7	0	0	0	0	512	1	
8	0	0	0	0	508	1	
9	0	0	0	0	508	1	
10	0	0	0	0	510	1	
11	0	0	0	0	511	2	
12	0	0	0	0	511	3	
13	0	0	0	0	511	1	
14	0	0	0	0	510	1	
15	0	0	0	0	511	1	
0	0	0	0	0	512	1	
1	0	0	0	0	510	1	
2	0	0	0	0	510	1	
3	0	0	0	0	511	2	
4	0	0	0	0	511	3	
5	0	0	0	0	510	1	
6	0	0	0	0	511	1	
7	0	0	0	0	511	1	
8	0	0	0	0	510	1	
9	0	0	0	0	509	1	
10	0	0	0	0	507	1	
11	0	0	0	0	506	2	
12	0	0	0	0	507	3	
13	0	0	0	0	509	1	
14	0	0	0	0	511	1	
15	0	0	0	0	511	1	
0	0	0	0	0	512	1	
1	0	0	0	0	511	1	
2	0	0	0	0	509	1	
3	0	0	0	0	507	1	
4	0	0	0	0	507	3	
5	0	0	0	0	508	1	
6	0	0	0	0	511	1	
7	0	0	0	0	511	1	
8	0	0	0	0	515	1	
9	0	0	0	0	522	2	
10	0	0	0	0	518	1	
11	0	0	0	0	511	1	
12	0	0	0	0	504	1	
13	0	0	0	0	497	1	
14	0	0	0	0	498	1	
15	0	0	0	0	502	1	
0	0	0	0	0	505	1	
1	0	0	0	0	508	2	
2	0	0	0	0	511	1	
3	0	0	0	0	510	1	
4	0	0	0	0	512	2	
5	0	0	0	0	519	1	
6	0	0	0	0	544	2	
7	0	0	0	0	541	2	
8	0	0	0	0	521	1	
9	0	0	0	0	504	1	
10	0	0	0	0	496	1	
11	0	0	0	0	487	1	
12	0	0	0	0	474	3	
13	0	0	0	0	481	1	
14	0	0	0	0	490	1	
15	0	0	0	0	504	1	
0	0	0	0	0	509	1	
1	0	0	0	0	512	1	
2	0	0	0	0	513	1	
3	0	0	0	0	515	2	
4	0	0	0	0	513	3	
5	0	0	0	0	514	2	
6	0	0	0	0	515	1	
7	0	0	0	0	512	1	
8	0	0	0	0	514	1	
9	0	0	0	0	511	1	
10	0	0	0	0	512	1	
11	0	0	0	0	510	2	
12	0	0	0	0	511	3	
13	0	0	0	0	511	1	
14	0	0	0	0	513	1	
15	0	0	0	0	511	1	
0	0	0	0	0	510	1	
1	0	0	0	0	508	1	
2	0	0	0	0	509	1	
3	0	0	0	0	510	1	
4	0	0	0	0	509	3	
5	0	0	0	0	510	1	
6	0	0	0	0	512	1	
7	0	0	0	0	511	1	
8	0	0	0	0	511	1	
9	0	0	0	0	511	1	
10	0	0	0	0	508	1	
11	0	0	0	0	508	2	
12	0	0	0	0	509	3	
13	0	0	0	0	510	1	
14	0	0	0	0	510	1	
15	0	0	0	0	509	1	
0	0	0	0	0	509	1	
1	0	0	0	0	508	1	
2	0	0	0	0	509	1	
3	0	0	0	0	508	1	
4	0	0	0	0	508	3	
5	0	0	0	0	510	1	
6	0	0	0	0	508	1	
7	0	0	0	0	507	1	
8	0	0	0	0	507	1	
9	0	0	0	0	505	1	
10	0	0	0	0	507	1	
11	0	0	0	0	512	2	
12	0	0	0	0	513	3	
13	0	0	0	0	514	2	
14	0	0	0	0	513	1	
15	0	0	0	0	513	1	
0	0	0	0	0	513	1	
1	0	0	0	0	512	1	
2	0	0	0	0	512	1	
3	0	0	0	0	512	2	
4	0	0	0	0	512	3	
5	0	0	0	0	512	1	
6	0	0	0	0	510	1	
7	0	0	0	0	511	1	
8	0	0	0	0	507	1	
9	0	0	0	0	507	1	
10	0	0	0	0	507	1	
11	0	0	0	0	505	2	
12	0	0	0	0	504	3	
13	0	0	0	0	508	1	
14	0	0	0	0	506	1	
15	0	0	0	0	506	1	
0	0	0	0	0	510	1	
1	0	0	0	0	510	1	
2	0	0	0	0	512	1	
3	0	0	0	0	510	2	
4	0	0	0	0	510	3	
5	0	0	0	0	512	1	
6	0	0	0	0	512	1	
7	0	0	0	0	510	1	
8	0	0	0	0	508	1	
9	0	0	0	0	511	1	
10	0	0	0	0	512	1	
11	0	0	0	0	512	2	
12	0	0	0	0	510	3	
13	0	0	0	0	510	1	
14	0	0	0	0	512	1	
15	0	0	0	0	511	1	
0	0	0	0	0	511	1	
1	0	0	0	0	510	1	
2	0	0	0	0	507	1	
3	0	0	0	0	508	1	
4	0	0	0	0	507	2	
5	0	0	0	0	507	1	
6	0	0	0	0	508	1	
7	0	0	0	0	508	1	
8	0	0	0	0	507	1	
9	0	0	0	0	510	1	
10	0	0	0	0	507	1	
11	0	0	0	0	508	1	
12	0	0	0	0	510	2	
13	0	0	0	0	512	1	
14	0	0	0	0	509	1	
15	0	0	0	0	509	1	
0	0	0	0	0	511	1	
1	0	0	0	0	510	1	
2	0	0	0	0	508	1	
3	0	0	0	0	511	1	
4	0	0	0	0	509	2	
5	0	0	0	0	511	1	
6	0	0	0	0	510	1	
7	0	0	0	0	514	1	
8	0	0	0	0	511	1	
9	0	0	0	0	510	1	
10	0	0	0	0	507	1	
11	0	0	0	0	508	2	
12	0	0	0	0	507	3	
13	0	0	0	0	510	1	
14	0	0	0	0	509	1	
15	0	0	0	0	509	1	
0	0	0	0	0	507	1	
1	0	0	0	0	511	1	
2	0	0	0	0	512	1	
3	0	0	0	0	512	2	
4	0	0	0	0	515	3	
5	0	0	0	0	517	1	
6	0	0	0	0	515	1	
7	0	0	0	0	511	1	
8	0	0	0	0	510	1	
9	0	0	0	0	506	1	
10	0	0	0	0	502	1	
11	0	0	0	0	504	1	
12	0	0	0	0	506	3	
13	0	0	0	0	508	1	
14	0	0	0	0	508	1	
15	0	0	0	0	512	1	
0	0	0	0	0	510	1	
1	0	0	0	0	511	1	
2	0	0	0	0	511	1	
3	0	0	0	0	512	2	
4	0	0	0	0	511	3	
5	0	0	0	0	511	1	
6	0	0	0	0	511	1	
7	0	0	0	0	516	1	
8	0	0	0	0	518	1	
9	0	0	0	0	511	1	
10	0	0	0	0	507	1	
11	0	0	0	0	504	1	
12	0	0	0	0	504	3	
13	0	0	0	0	503	1	
14	0	0	0	0	507	1	
15	0	0	0	0	512	1	
0	0	0	0	0	511	1	
1	0	0	0	0	511	1	
2	0	0	0	0	507	1	
3	0	0	0	0	507	2	
4	0	0	0	0	506	3	
5	0	0	0	0	505	1	
6	0	0	0	0	506	1	
7	0	0	0	0	506	1	
8	0	0	0	0	508	1	
9	0	0	0	0	507	1	
10	0	0	0	0	507	1	
11	0	0	0	0	509	2	
12	0	0	0	0	509	3	
13	0	0	0	0	512	1	
14	0	0	0	0	511	1	
15	0	0	0	0	510	1	
0	0	0	0	0	512	1	
1	0	0	0	0	515	1	
2	0	0	0	0	515	1	
3	0	0	0	0	519	2	
4	0	0	0	0	523	3	
5	0	0	0	0	518	1	
6	0	0	0	0	508	1	
7	0	0	0	0	503	1	
8	0	0	0	0	499	1	
9	0	0	0	0	500	1	
10	0	0	0	0	500	1	
11	0	0	0	0	507	1	
12	0	0	0	0	508	3	
13	0	0	0	0	510	1	
14	0	0	0	0	508	1	
15	0	0	0	0	509	1	
0	0	0	0	0	510	1	
1	0	0	0	0	510	1	
2	0	0	0	0	510	1	
3	0	0	0	0	508	2	
4	0	0	0	0	507	3	
5	0	0	0	0	510	1	
6	0	0	0	0	510	1	
7	0	0	0	0	512	1	
8	0	0	0	0	512	1	
9	0	0	0	0	515	1	
10	0	0	0	0	515	1	
11	0	0	0	0	510	2	
12	0	0	0	0	511	3	
13	0	0	0	0	510	1	
14	0	0	0	0	507	1	
15	0	0	0	0	509	1	
0	0	0	0	0	508	1	
1	0	0	0	0	509	1	
2	0	0	0	0	511	1	
3	0	0	0	0	510	1	
4	0	0	0	0	508	2	
5	0	0	0	0	508	1	
6	0	0	0	0	509	1	
7	0	0	0	0	508	1	
8	0	0	0	0	508	1	
9	0	0	0	0	508	1	
10	0	0	0	0	510	1	
11	0	0	0	0	511	1	
12	0	0	0	0	508	1	
13	0	0	0	0	509	1	
14	0	0	0	0	510	1	
15	0	0	0	0	512	1	
0	0	0	0	0	512	1	
1	0	0	0	0	512	1	
2	0	0	0	0	511	1	
3	0	0	0	0	507	1	
4	0	0	0	0	507	2	
5	0	0	0	0	508	1	
6	0	0	0	0	509	1	
7	0	0	0	0	508	1	
8	0	0	0	0	510	1	
9	0	0	0	0	507	1	
10	0	0	0	0	511	1	
11	0	0	0	0	512	2	
12	0	0	0	0	513	3	
13	0	0	0	0	524	2	
14	0	0	0	0	525	2	
15	0	0	0	0	513	1	
0	0	0	0	0	504	1	
1	0	0	0	0	498	1	
2	0	0	0	0	499	1	
3	0	0	0	0	497	1	
4	0	0	0	0	501	3	
5	0	0	0	0	507	1	
6	0	0	0	0	511	1	
7	0	0	0	0	513	1	
8	0	0	0	0	511	1	
9	0	0	0	0	516	1	
10	0	0	0	0	516	1	
11	0	0	0	0	513	2	
12	0	0	0	0	512	3	
13	0	0	0	0	509	1	
14	0	0	0	0	505	1	
15	0	0	0	0	502	1	
0	0	0	0	0	502	1	
1	0	0	0	0	504	1	
2	0	0	0	0	504	1	
3	0	0	0	0	508	2	
4	0	0	0	0	510	3	
5	0	0	0	0	511	1	
6	0	0	0	0	513	1	
7	0	0	0	0	512	1	
8	0	0	0	0	515	1	
9	0	0	0	0	511	1	
10	0	0	0	0	513	1	
11	0	0	0	0	513	2	
12	0	0	0	0	512	3	
13	0	0	0	0	511	1	
14	0	0	0	0	510	1	
15	0	0	0	0	507	1	
0	0	0	0	0	508	1	
1	0	0	0	0	507	1	
2	0	0	0	0	509	1	
3	0	0	0	0	509	1	
4	0	0	0	0	510	3	
5	0	0	0	0	510	1	
6	0	0	0	0	511	1	
7	0	0	0	0	509	1	
8	0	0	0	0	510	1	
9	0	0	0	0	510	1	
10	0	0	0	0	510	1	
11	0	0	0	0	512	2	
12	0	0	0	0	511	3	
13	0	0	0	0	512	1	
14	0	0	0	0	510	1	
15	0	0	0	0	510	1	
0	0	0	0	0	509	1	
1	0	0	0	0	510	1	
2	0	0	0	0	511	1	
3	0	0	0	0	511	2	
4	0	0	0	0	509	3	
5	0	0	0	0	509	1	
6	0	0	0	0	509	1	
7	0	0	0	0	508	1	
8	0	0	0	0	508	1	
9	0	0	0	0	508	1	
10	0	0	0	0	504	1	
11	0	0	0	0	507	2	
12	0	0	0	0	509	3	
13	0	0	0	0	512	1	
14	0	0	0	0	520	1	
15	0	0	0	0	518	1	
0	0	0	0	0	511	1	
1	0	0	0	0	508	1	
2	0	0	0	0	505	1	
3	0	0	0	0	500	1	
4	0	0	0	0	501	3	
5	0	0	0	0	505	1	
6	0	0	0	0	511	1	
7	0	0	0	0	512	1	
8	0	0	0	0	510	1	
9	0	0	0	0	510	1	
10	0	0	0	0	511	1	
11	0	0	0	0	511	2	
12	0	0	0	0	510	3	
13	0	0	0	0	511	1	
14	0	0	0	0	510	1	
15	0	0	0	0	511	1	
0	0	0	0	0	511	1	
1	0	0	0	0	511	1	
2	0	0	0	0	515	1	
3	0	0	0	0	520	2	
4	0	0	0	0	516	2	
5	0	0	0	0	511	1	
6	0	0	0	0	504	1	
7	0	0	0	0	499	1	
8	0	0	0	0	499	1	
9	0	0	0	0	503	1	
10	0	0	0	0	506	1	
11	0	0	0	0	508	2	
12	0	0	0	0	508	2	
13	0	0	0	0	511	1	
14	0	0	0	0	511	1	
15	0	0	0	0	509	1	
0	0	0	0	0	511	1	
1	0	0	0	0	510	1	
2	0	0	0	0	511	1	
3	0	0	0	0	511	1	
4	0	0	0	0	509	3	
5	0	0	0	0	512	1	
6	0	0	0	0	512	1	
7	0	0	0	0	511	1	
8	0	0	0	0	511	1	
9	0	0	0	0	511	1	
10	0	0	0	0	510	1	
11	0	0	0	0	510	2	
12	0	0	0	0	510	3	
13	0	0	0	0	511	1	
14	0	0	0	0	508	1	
15	0	0	0	0	510	1	
0	0	0	0	0	512	1	
1	0	0	0	0	511	1	
2	0	0	0	0	511	1	
3	0	0	0	0	510	2	
4	0	0	0	0	510	3	
5	0	0	0	0	505	1	
6	0	0	0	0	505	1	
7	0	0	0	0	507	1	
8	0	0	0	0	509	1	
9	0	0	0	0	508	1	
10	0	0	0	0	511	1	
11	0	0	0	0	511	2	
12	0	0	0	0	511	3	
13	0	0	0	0	511	1	
14	0	0	0	0	511	1	
15	0	0	0	0	511	1	
0	0	0	0	0	512	1	
1	0	0	0	0	511	1	
2	0	0	0	0	508	1	
3	0	0	0	0	510	2	
4	0	0	0	0	509	3	
5	0	0	0	0	508	1	
6	0	0	0	0	510	1	
7	0	0	0	0	511	1	
8	0	0	0	0	512	1	
9	0	0	0	0	510	1	
10	0	0	0	0	511	1	
11	0	0	0	0	511	2	
12	0	0	0	0	512	3	
13	0	0	0	0	511	1	
14	0	0	0	0	510	1	
15	0	0	0	0	510	1	
0	0	0	0	0	507	1	
1	0	0	0	0	508	1	
2	0	0	0	0	508	1	
3	0	0	0	0	505	1	
4	0	0	0	0	505	3	
5	0	0	0	0	505	1	
6	0	0	0	0	505	1	
7	0	0	0	0	507	1	
8	0	0	0	0	511	1	
9	0	0	0	0	511	1	
10	0	0	0	0	513	1	
11	0	0	0	0	513	2	
12	0	0	0	0	511	3	
13	0	0	0	0	511	1	
14	0	0	0	0	511	1	
15	0	0	0	0	508	1	
0	0	0	0	0	508	1	
1	0	0	0	0	508	1	
2	0	0	0	0	511	1	
3	0	0	0	0	510	2	
4	0	0	0	0	508	3	
5	0	0	0	0	507	1	
6	0	0	0	0	505	1	
7	0	0	0	0	507	1	
8	0	0	0	0	507	1	
9	0	0	0	0	508	1	
10	0	0	0	0	511	1	
11	0	0	0	0	510	2	
12	0	0	0	0	511	3	
13	0	0	0	0	512	1	
14	0	0	0	0	512	1	
15	0	0	0	0	512	1	
0	0	0	0	0	514	1	
1	0	0	0	0	513	1	
2	0	0	0	0	512	1	
3	0	0	0	0	511	2	
4	0	0	0	0	509	3	
5	0	0	0	0	510	1	
6	0	0	0	0	511	1	
7	0	0	0	0	510	1	
8	0	0	0	0	510	1	
9	0	0	0	0	511	1	
10	0	0	0	0	514	1	
11	0	0	0	0	513	1	
12	0	0	0	0	512	2	
13	0	0	0	0	512	1	
14	0	0	0	0	509	1	
15	0	0	0	0	509	1	
0	0	0	0	0	505	1	
1	0	0	0	0	505	1	
2	0	0	0	0	507	1	
3	0	0	0	0	507	1	
4	0	0	0	0	504	2	
5	0	0	0	0	504	1	
6	0	0	0	0	505	1	
7	0	0	0	0	504	1	
8	0	0	0	0	507	1	
9	0	0	0	0	508	1	
10	0	0	0	0	508	1	
11	0	0	0	0	508	1	
12	0	0	0	0	509	2	
13	0	0	0	0	511	1	
14	0	0	0	0	511	1	
15	0	0	0	0	511	1	
0	0	0	0	0	512	1	
1	0	0	0	0	512	1	
2	0	0	0	0	511	1	
3	0	0	0	0	510	2	
4	0	0	0	0	511	3	
5	0	0	0	0	511	1	
6	0	0	0	0	508	1	
7	0	0	0	0	509	1	
8	0	0	0	0	507	1	
9	0	0	0	0	511	1	
10	0	0	0	0	508	1	
11	0	0	0	0	510	2	
12	0	0	0	0	508	3	
13	0	0	0	0	510	1	
14	0	0	0	0	511	1	
15	0	0	0	0	511	1	
0	0	0	0	0	511	1	
1	0	0	0	0	509	1	
2	0	0	0	0	511	1	
3	0	0	0	0	511	2	
4	0	0	0	0	511	3	
5	0	0	0	0	511	1	
6	0	0	0	0	510	1	
7	0	0	0	0	511	1	
8	0	0	0	0	511	1	
9	0	0	0	0	511	1	
10	0	0	0	0	510	1	
11	0	0	0	0	508	2	
12	0	0	0	0	509	3	
13	0	0	0	0	510	1	
14	0	0	0	0	510	1	
15	0	0	0	0	511	1	
0	0	0	0	0	511	1	
1	0	0	0	0	512	1	
2	0	0	0	0	513	1	
3	0	0	0	0	513	2	
4	0	0	0	0	512	3	
5	0	0	0	0	512	1	
6	0	0	0	0	510	1	
7	0	0	0	0	508	1	
8	0	0	0	0	509	1	
9	0	0	0	0	508	1	
10	0	0	0	0	507	1	
11	0	0	0	0	507	2	
12	0	0	0	0	506	3	
13	0	0	0	0	508	1	
14	0	0	0	0	508	1	
15	0	0	0	0	507	1	
0	0	0	0	0	506	1	
1	0	0	0	0	506	1	
2	0	0	0	0	505	1	
3	0	0	0	0	506	2	
4	0	0	0	0	508	3	
5	0	0	0	0	508	1	
6	0	0	0	0	512	1	
7	0	0	0	0	509	1	
8	0	0	0	0	509	1	
9	0	0	0	0	507	1	
10	0	0	0	0	509	1	
11	0	0	0	0	511	2	
12	0	0	0	0	511	3	
13	0	0	0	0	512	1	
14	0	0	0	0	512	1	
15	0	0	0	0	512	1	
0	0	0	0	0	512	1	
1	0	0	0	0	511	1	
2	0	0	0	0	512	1	
3	0	0	0	0	512	2	
4	0	0	0	0	512	3	
5	0	0	0	0	511	1	
6	0	0	0	0	512	1	
7	0	0	0	0	510	1	
8	0	0	0	0	510	1	
9	0	0	0	0	510	1	
10	0	0	0	0	505	1	
11	0	0	0	0	507	2	
12	0	0	0	0	509	3	
13	0	0	0	0	510	1	
14	0	0	0	0	510	1	
15	0	0	0	0	510	1	
0	0	0	0	0	508	1	
1	0	0	0	0	510	1	
2	0	0	0	0	508	1	
3	0	0	0	0	511	2	
4	0	0	0	0	510	3	
5	0	0	0	0	508	1	
6	0	0	0	0	509	1	
7	0	0	0	0	507	1	
8	0	0	0	0	507	1	
9	0	0	0	0	507	1	
10	0	0	0	0	510	1	
11	0	0	0	0	510	1	
12	0	0	0	0	510	2	
13	0	0	0	0	508	1	
14	0	0	0	0	510	1	
15	0	0	0	0	510	1	
0	0	0	0	0	510	1	
1	0	0	0	0	510	1	
2	0	0	0	0	510	1	
3	0	0	0	0	511	1	
4	0	0	0	0	511	2	
5	0	0	0	0	511	1	
6	0	0	0	0	510	1	
7	0	0	0	0	513	1	
8	0	0	0	0	511	1	
9	0	0	0	0	512	1	
10	0	0	0	0	511	1	
11	0	0	0	0	510	1	
12	0	0	0	0	510	2	
13	0	0	0	0	509	1	
14	0	0	0	0	508	1	
15	0	0	0	0	507	1	
0	0	0	0	0	509	1	
1	0	0	0	0	509	1	
2	0	0	0	0	510	1	
3	0	0	0	0	512	2	
4	0	0	0	0	512	3	
5	0	0	0	0	513	1	
6	0	0	0	0	510	2	
7	0	0	0	0	508	1	
8	0	0	0	0	506	1	
9	0	0	0	0	508	1	
10	0	0	0	0	504	1	
11	0	0	0	0	504	2	
12	0	0	0	0	505	3	
13	0	0	0	0	508	1	
14	0	0	0	0	511	1	
15	0	0	0	0	511	1	
0	0	0	0	0	512	1	
1	0	0	0	0	513	1	
2	0	0	0	0	511	1	
3	0	0	0	0	512	2	
4	0	0	0	0	511	3	
5	0	0	0	0	512	1	
6	0	0	0	0	510	1	
7	0	0	0	0	510	1	
8	0	0	0	0	510	1	
9	0	0	0	0	512	1	
10	0	0	0	0	510	1	
11	0	0	0	0	510	2	
12	0	0	0	0	509	3	
13	0	0	0	0	506	1	
14	0	0	0	0	509	1	
15	0	0	0	0	510	1	
0	0	0	0	0	512	1	
1	0	0	0	0	510	1	
2	0	0	0	0	509	1	
3	0	0	0	0	508	2	
4	0	0	0	0	507	3	
5	0	0	0	0	508	1	
6	0	0	0	0	508	1	
7	0	0	0	0	508	1	
8	0	0	0	0	507	1	
9	0	0	0	0	509	1	
10	0	0	0	0	508	1	
11	0	0	0	0	508	1	
12	0	0	0	0	511	3	
13	0	0	0	0	510	1	
14	0	0	0	0	509	1	
15	0	0	0	0	510	1	
0	0	0	0	0	507	1	
1	0	0	0	0	505	1	
2	0	0	0	0	508	1	
3	0	0	0	0	507	2	
4	0	0	0	0	509	3	
5	0	0	0	0	512	1	
6	0	0	0	0	511	1	
7	0	0	0	0	510	1	
8	0	0	0	0	512	1	
9	0	0	0	0	511	1	
10	0	0	0	0	508	1	
11	0	0	0	0	510	2	
12	0	0	0	0	509	3	
13	0	0	0	0	509	1	
14	0	0	0	0	510	1	
15	0	0	0	0	510	1	
0	0	0	0	0	509	1	
1	0	0	0	0	510	1	
2	0	0	0	0	511	1	
3	0	0	0	0	510	2	
4	0	0	0	0	510	3	
5	0	0	0	0	510	1	
6	0	0	0	0	510	1	
7	0	0	0	0	510	1	
8	0	0	0	0	511	1	
9	0	0	0	0	510	1	
10	0	0	0	0	510	1	
11	0	0	0	0	509	2	
12	0	0	0	0	508	3	
13	0	0	0	0	509	1	
14	0	0	0	0	508	1	
15	0	0	0	0	508	1	
0	0	0	0	0	508	1	
1	0	0	0	0	509	1	
2	0	0	0	0	508	1	
3	0	0	0	0	509	1	
4	0	0	0	0	509	3	
5	0	0	0	0	510	1	
6	0	0	0	0	509	1	
7	0	0	0	0	509	1	
8	0	0	0	0	510	1	
9	0	0	0	0	510	1	
10	0	0	0	0	511	1	
11	0	0	0	0	509	1	
12	0	0	0	0	511	2	
13	0	0	0	0	510	1	
14	0	0	0	0	509	1	
15	0	0	0	0	509	1	
0	0	0	0	0	508	1	
1	0	0	0	0	508	1	
2	0	0	0	0	508	1	
3	0	0	0	0	508	1	
4	0	0	0	0	508	2	
5	0	0	0	0	508	1	
6	0	0	0	0	506	1	
7	0	0	0	0	507	1	
8	0	0	0	0	510	1	
9	0	0	0	0	510	1	
10	0	0	0	0	511	1	
11	0	0	0	0	511	2	
12	0	0	0	0	511	3	
13	0	0	0	0	512	1	
14	0	0	0	0	512	1	
15	0	0	0	0	511	1	
0	0	0	0	0	510	1	
1	0	0	0	0	510	1	
2	0	0	0	0	508	1	
3	0	0	0	0	510	1	
4	0	0	0	0	508	3	
5	0	0	0	0	510	1	
6	0	0	0	0	510	1	
7	0	0	0	0	507	1	
8	0	0	0	0	510	1	
9	0	0	0	0	518	1	
10	0	0	0	0	520	1	
11	0	0	0	0	517	2	
12	0	0	0	0	515	3	
13	0	0	0	0	507	1	
14	0	0	0	0	501	1	
15	0	0	0	0	496	1	
0	0	0	0	0	496	1	
1	0	0	0	0	503	1	
2	0	0	0	0	508	1	
3	0	0	0	0	511	1	
4	0	0	0	0	511	3	
5	0	0	0	0	512	1	
6	0	0	0	0	513	1	
7	0	0	0	0	510	1	
8	0	0	0	0	511	1	
9	0	0	0	0	511	1	
10	0	0	0	0	512	1	
11	0	0	0	0	512	2	
12	0	0	0	0	509	3	
13	0	0	0	0	512	1	
14	0	0	0	0	511	1	
15	0	0	0	0	511	1	
0	0	0	0	0	511	1	
1	0	0	0	0	509	1	
2	0	0	0	0	510	1	
3	0	0	0	0	510	2	
4	0	0	0	0	508	3	
5	0	0	0	0	508	1	
6	0	0	0	0	508	1	
7	0	0	0	0	512	1	
8	0	0	0	0	512	1	
9	0	0	0	0	510	1	
10	0	0	0	0	508	1	
11	0	0	0	0	506	2	
12	0	0	0	0	507	3	
13	0	0	0	0	508	1	
14	0	0	0	0	508	1	
15	0	0	0	0	510	1	
0	0	0	0	0	511	1	
1	0	0	0	0	511	1	
2	0	0	0	0	510	1	
3	0	0	0	0	510	2	
4	0	0	0	0	510	3	
5	0	0	0	0	508	1	
6	0	0	0	0	505	1	
7	0	0	0	0	508	1	
8	0	0	0	0	509	1	
9	0	0	0	0	509	1	
10	0	0	0	0	510	1	
11	0	0	0	0	511	2	
12	0	0	0	0	510	3	
13	0	0	0	0	511	1	
14	0	0	0	0	512	1	
15	0	0	0	0	510	1	
0	0	0	0	0	510	1	
1	0	0	0	0	509	1	
2	0	0	0	0	504	1	
3	0	0	0	0	508	2	
4	0	0	0	0	508	3	
5	0	0	0	0	511	1	
6	0	0	0	0	508	1	
7	0	0	0	0	510	1	
8	0	0	0	0	512	1	
9	0	0	0	0	509	1	
10	0	0	0	0	510	1	
11	0	0	0	0	508	1	
12	0	0	0	0	511	3	
13	0	0	0	0	511	1	
14	0	0	0	0	508	1	
15	0	0	0	0	510	1	
0	0	0	0	0	508	1	
1	0	0	0	0	510	1	
2	0	0	0	0	507	1	
3	0	0	0	0	508	1	
4	0	0	0	0	507	2	
5	0	0	0	0	508	1	
6	0	0	0	0	511	1	
7	0	0	0	0	512	1	
8	0	0	0	0	511	1	
9	0	0	0	0	512	2	
10	0	0	0	0	510	1	
11	0	0	0	0	508	1	
12	0	0	0	0	505	2	
13	0	0	0	0	507	1	
14	0	0	0	0	507	1	
15	0	0	0	0	509	1	
0	0	0	0	0	512	1	
1	0	0	0	0	513	1	
2	0	0	0	0	511	1	
3	0	0	0	0	513	2	
4	0	0	0	0	512	2	
5	0	0	0	0	512	1	
6	0	0	0	0	513	1	
7	0	0	0	0	512	1	
8	0	0	0	0	511	1	
9	0	0	0	0	511	1	
10	0	0	0	0	509	1	
11	0	0	0	0	507	2	
12	0	0	0	0	508	3	
13	0	0	0	0	516	1	
14	0	0	0	0	519	1	
15	0	0	0	0	512	1	
0	0	0	0	0	505	1	
1	0	0	0	0	499	1	
2	0	0	0	0	500	1	
3	0	0	0	0	504	1	
4	0	0	0	0	509	3	
5	0	0	0	0	513	1	
6	0	0	0	0	514	1	
7	0	0	0	0	510	1	
8	0	0	0	0	508	1	
9	0	0	0	0	513	1	
10	0	0	0	0	514	1	
11	0	0	0	0	514	2	
12	0	0	0	0	511	3	
13	0	0	0	0	509	1	
14	0	0	0	0	502	1	
15	0	0	0	0	503	1	
0	0	0	0	0	513	1	
1	0	0	0	0	512	1	
2	0	0	0	0	508	1	
3	0	0	0	0	511	2	
4	0	0	0	0	515	3	
5	0	0	0	0	518	1	
6	0	0	0	0	518	1	
7	0	0	0	0	520	1	
8	0	0	0	0	511	1	
9	0	0	0	0	498	1	
10	0	0	0	0	483	1	
11	0	0	0	0	487	1	
12	0	0	0	0	513	3	
13	0	0	0	0	532	2	
14	0	0	0	0	527	1	
15	0	0	0	0	508	1	
0	0	0	0	0	499	1	
1	0	0	0	0	489	1	
2	0	0	0	0	490	1	
3	0	0	0	0	490	1	
4	0	0	0	0	501	3	
5	0	0	0	0	510	1	
6	0	0	0	0	514	1	
7	0	0	0	0	514	1	
8	0	0	0	0	518	1	
9	0	0	0	0	516	2	
10	0	0	0	0	515	1	
11	0	0	0	0	514	2	
12	0	0	0	0	512	3	
13	0	0	0	0	514	1	
14	0	0	0	0	516	1	
15	0	0	0	0	515	1	
0	0	0	0	0	513	1	
1	0	0	0	0	512	1	
2	0	0	0	0	514	1	
3	0	0	0	0	509	2	
4	0	0	0	0	510	3	
5	0	0	0	0	508	1	
6	0	0	0	0	505	1	
7	0	0	0	0	508	1	
8	0	0	0	0	507	1	
9	0	0	0	0	509	1	
10	0	0	0	0	510	1	
11	0	0	0	0	515	2	
12	0	0	0	0	512	3	
13	0	0	0	0	509	1	
14	0	0	0	0	506	1	
15	0	0	0	0	505	1	
0	0	0	0	0	505	1	
1	0	0	0	0	504	1	
2	0	0	0	0	511	1	
3	0	0	0	0	514	2	
4	0	0	0	0	513	3	
5	0	0	0	0	512	1	
6	0	0	0	0	509	1	
7	0	0	0	0	510	1	
8	0	0	0	0	510	1	
9	0	0	0	0	509	1	
10	0	0	0	0	511	1	
11	0	0	0	0	510	2	
12	0	0	0	0	510	3	
13	0	0	0	0	519	2	
14	0	0	0	0	524	2	
15	0	0	0	0	521	2	
0	0	0	0	0	524	1	
1	0	0	0	0	516	1	
2	0	0	0	0	507	1	
3	0	0	0	0	498	1	
4	0	0	0	0	488	1	
5	0	0	0	0	489	1	
6	0	0	0	0	496	1	
7	0	0	0	0	501	1	
8	0	0	0	0	507	1	
9	0	0	0	0	510	1	
10	0	0	0	0	511	1	
11	0	0	0	0	511	1	
12	0	0	0	0	511	2	
13	0	0	0	0	509	1	
14	0	0	0	0	512	1	
15	0	0	0	0	511	1	
0	0	0	0	0	512	1	
1	0	0	0	0	513	1	
2	0	0	0	0	511	1	
3	0	0	0	0	511	1	
4	0	0	0	0	512	2	
5	0	0	0	0	514	1	
6	0	0	0	0	511	1	
7	0	0	0	0	514	1	
8	0	0	0	0	512	1	
9	0	0	0	0	511	1	
10	0	0	0	0	507	1	
11	0	0	0	0	507	1	
12	0	0	0	0	508	3	
13	0	0	0	0	510	1	
14	0	0	0	0	510	2	
15	0	0	0	0	512	1	
0	0	0	0	0	511	1	
1	0	0	0	0	509	1	
2	0	0	0	0	517	1	
3	0	0	0	0	519	2	
4	0	0	0	0	513	3	
5	0	0	0	0	513	1	
6	0	0	0	0	513	1	
7	0	0	0	0	515	1	
8	0	0	0	0	502	1	
9	0	0	0	0	494	1	
10	0	0	0	0	500	1	
11	0	0	0	0	513	2	
12	0	0	0	0	519	3	
13	0	0	0	0	517	1	
14	0	0	0	0	505	1	
15	0	0	0	0	496	1	
0	0	0	0	0	499	1	
1	0	0	0	0	511	1	
2	0	0	0	0	519	1	
3	0	0	0	0	507	1	
4	0	0	0	0	507	3	
5	0	0	0	0	496	1	
6	0	0	0	0	489	1	
7	0	0	0	0	487	1	
8	0	0	0	0	495	1	
9	0	0	0	0	504	1	
10	0	0	0	0	509	1	
11	0	0	0	0	515	2	
12	0	0	0	0	517	3	
13	0	0	0	0	518	1	
14	0	0	0	0	515	1	
15	0	0	0	0	516	1	
0	0	0	0	0	513	1	
1	0	0	0	0	515	1	
2	0	0	0	0	514	1	
3	0	0	0	0	512	2	
4	0	0	0	0	514	3	
5	0	0	0	0	514	1	
6	0	0	0	0	512	1	
7	0	0	0	0	511	1	
8	0	0	0	0	511	1	
9	0	0	0	0	519	1	
10	0	0	0	0	523	1	
11	0	0	0	0	523	2	
12	0	0	0	0	511	3	
13	0	0	0	0	504	1	
14	0	0	0	0	504	1	
15	0	0	0	0	503	1	
0	0	0	0	0	500	1	
1	0	0	0	0	500	1	
2	0	0	0	0	504	1	
3	0	0	0	0	502	1	
4	0	0	0	0	503	3	
5	0	0	0	0	504	1	
6	0	0	0	0	507	1	
7	0	0	0	0	508	1	
8	0	0	0	0	512	1	
9	0	0	0	0	512	1	
10	0	0	0	0	512	1	
11	0	0	0	0	512	2	
12	0	0	0	0	513	3	
13	0	0	0	0	514	1	
14	0	0	0	0	512	1	
15	0	0	0	0	511	1	
0	0	0	0	0	514	1	
1	0	0	0	0	513	1	
2	0	0	0	0	511	1	
3	0	0	0	0	514	2	
4	0	0	0	0	519	3	
5	0	0	0	0	512	1	
6	0	0	0	0	504	2	
7	0	0	0	0	502	1	
8	0	0	0	0	504	1	
9	0	0	0	0	515	1	
10	0	0	0	0	512	1	
11	0	0	0	0	506	2	
12	0	0	0	0	524	3	
13	0	0	0	0	527	2	
14	0	0	0	0	533	2	
15	0	0	0	0	572	2	
0	0	0	0	0	566	2	
1	0	0	0	0	527	2	
2	0	0	0	0	483	1	
3	0	0	0	0	447	1	
4	0	0	0	0	420	1	
5	0	0	0	0	416	1	
6	0	0	0	0	446	1	
7	0	0	0	0	488	1	
8	0	0	0	0	522	1	
9	0	0	0	0	534	2	
10	0	0	0	0	536	2	
11	0	0	0	0	525	2	
12	0	0	0	0	514	2	
13	0	0	0	0	516	1	
14	0	0	0	0	529	2	
15	0	0	0	0	530	2	
0	0	0	0	0	523	1	
1	0	0	0	0	538	2	
2	0	0	0	0	566	2	
3	0	0	0	0	536	2	
4	0	0	0	0	499	3	
5	0	0	0	0	479	1	
6	0	0	0	0	465	1	
7	0	0	0	0	469	1	
8	0	0	0	0	479	1	
9	0	0	0	0	489	1	
10	0	0	0	0	504	1	
11	0	0	0	0	515	2	
12	0	0	0	0	516	3	
13	0	0	0	0	520	1	
14	0	0	0	0	521	2	
15	0	0	0	0	518	1	
0	0	0	0	0	516	1	
1	0	0	0	0	518	1	
2	0	0	0	0	523	1	
3	0	0	0	0	526	2	
4	0	0	0	0	521	3	
5	0	0	0	0	513	1	
6	0	0	0	0	506	1	
7	0	0	0	0	502	1	
8	0	0	0	0	507	1	
9	0	0	0	0	506	1	
10	0	0	0	0	515	1	
11	0	0	0	0	523	2	
12	0	0	0	0	520	3	
13	0	0	0	0	515	2	
14	0	0	0	0	504	1	
15	0	0	0	0	509	1	
0	0	0	0	0	527	1	
1	0	0	0	0	517	1	
2	0	0	0	0	508	1	
3	0	0	0	0	494	1	
4	0	0	0	0	486	3	
5	0	0	0	0	486	1	
6	0	0	0	0	488	1	
7	0	0	0	0	492	1	
8	0	0	0	0	504	1	
9	0	0	0	0	513	1	
10	0	0	0	0	515	1	
11	0	0	0	0	516	2	
12	0	0	0	0	514	3	
13	0	0	0	0	512	1	
14	0	0	0	0	513	1	
15	0	0	0	0	509	1	
0	0	0	0	0	514	1	
1	0	0	0	0	515	1	
2	0	0	0	0	527	2	
3	0	0	0	0	525	2	
4	0	0	0	0	517	3	
5	0	0	0	0	510	1	
6	0	0	0	0	505	1	
7	0	0	0	0	506	1	
8	0	0	0	0	510	1	
9	0	0	0	0	511	1	
10	0	0	0	0	511	1	
11	0	0	0	0	512	2	
12	0	0	0	0	512	3	
13	0	0	0	0	507	1	
14	0	0	0	0	501	1	
15	0	0	0	0	512	1	
0	0	0	0	0	519	1	
1	0	0	0	0	508	1	
2	0	0	0	0	503	1	
3	0	0	0	0	502	1	
4	0	0	0	0	492	3	
5	0	0	0	0	488	1	
6	0	0	0	0	497	1	
7	0	0	0	0	510	1	
8	0	0	0	0	514	1	
9	0	0	0	0	513	1	
10	0	0	0	0	509	1	
11	0	0	0	0	502	1	
12	0	0	0	0	503	3	
13	0	0	0	0	508	1	
14	0	0	0	0	513	1	
15	0	0	0	0	523	1	
0	0	0	0	0	525	1	
1	0	0	0	0	521	1	
2	0	0	0	0	514	1	
3	0	0	0	0	503	1	
4	0	0	0	0	511	3	
5	0	0	0	0	509	1	
6	0	0	0	0	502	1	
7	0	0	0	0	505	1	
8	0	0	0	0	505	1	
9	0	0	0	0	503	1	
10	0	0	0	0	502	1	
11	0	0	0	0	508	1	
12	0	0	0	0	509	2	
13	0	0	0	0	511	1	
14	0	0	0	0	518	1	
15	0	0	0	0	524	2	
0	0	0	0	0	520	1	
1	0	0	0	0	512	1	
2	0	0	0	0	502	1	
3	0	0	0	0	497	1	
4	0	0	0	0	504	2	
5	0	0	0	0	507	1	
6	0	0	0	0	508	1	
7	0	0	0	0	555	2	
8	0	0	0	0	563	2	
9	0	0	0	0	533	2	
10	0	0	0	0	499	1	
11	0	0	0	0	472	1	
12	0	0	0	0	465	1	
13	0	0	0	0	477	1	
14	0	0	0	0	489	1	
15	0	0	0	0	502	1	
0	0	0	0	0	514	1	
1	0	0	0	0	531	2	
2	0	0	0	0	546	1	
3	0	0	0	0	542	2	
4	0	0	0	0	524	3	
5	0	0	0	0	507	1	
6	0	0	0	0	497	1	
7	0	0	0	0	488	1	
8	0	0	0	0	483	1	
9	0	0	0	0	492	1	
10	0	0	0	0	504	1	
11	0	0	0	0	505	1	
12	0	0	0	0	503	3	
13	0	0	0	0	510	1	
14	0	0	0	0	514	1	
15	0	0	0	0	515	1	
0	0	0	0	0	512	1	
1	0	0	0	0	512	1	
2	0	0	0	0	512	1	
3	0	0	0	0	512	1	
4	0	0	0	0	511	3	
5	0	0	0	0	515	1	
6	0	0	0	0	520	2	
7	0	0	0	0	536	2	
8	0	0	0	0	532	1	
9	0	0	0	0	526	2	
10	0	0	0	0	509	1	
11	0	0	0	0	493	1	
12	0	0	0	0	499	3	
13	0	0	0	0	496	1	
14	0	0	0	0	490	1	
15	0	0	0	0	491	1	
0	0	0	0	0	494	1	
1	0	0	0	0	489	1	
2	0	0	0	0	493	1	
3	0	0	0	0	506	2	
4	0	0	0	0	513	3	
5	0	0	0	0	520	1	
6	0	0	0	0	520	1	
7	0	0	0	0	518	1	
8	0	0	0	0	518	1	
9	0	0	0	0	515	1	
10	0	0	0	0	516	2	
11	0	0	0	0	512	2	
12	0	0	0	0	519	3	
13	0	0	0	0	525	1	
14	0	0	0	0	516	1	
15	0	0	0	0	508	1	
0	0	0	0	0	501	1	
1	0	0	0	0	498	1	
2	0	0	0	0	500	1	
3	0	0	0	0	504	1	
4	0	0	0	0	510	3	
5	0	0	0	0	515	1	
6	0	0	0	0	519	1	
7	0	0	0	0	521	1	
8	0	0	0	0	516	1	
9	0	0	0	0	511	1	
10	0	0	0	0	503	1	
11	0	0	0	0	499	1	
12	0	0	0	0	506	3	
13	0	0	0	0	513	1	
14	0	0	0	0	518	1	
15	0	0	0	0	515	1	
0	0	0	0	0	510	1	
1	0	0	0	0	505	1	
2	0	0	0	0	497	1	
3	0	0	0	0	496	1	
4	0	0	0	0	501	3	
5	0	0	0	0	509	1	
6	0	0	0	0	511	1	
7	0	0	0	0	510	1	
8	0	0	0	0	511	1	
9	0	0	0	0	513	1	
10	0	0	0	0	512	1	
11	0	0	0	0	509	2	
12	0	0	0	0	506	3	
13	0	0	0	0	505	1	
14	0	0	0	0	507	1	
15	0	0	0	0	514	1	
0	0	0	0	0	515	1	
1	0	0	0	0	511	1	
2	0	0	0	0	508	1	
3	0	0	0	0	505	2	
4	0	0	0	0	503	3	
5	0	0	0	0	507	1	
6	0	0	0	0	512	1	
7	0	0	0	0	514	1	
8	0	0	0	0	516	1	
9	0	0	0	0	514	1	
10	0	0	0	0	512	1	
11	0	0	0	0	512	1	
12	0	0	0	0	509	2	
13	0	0	0	0	507	1	
14	0	0	0	0	513	1	
15	0	0	0	0	519	1	
0	0	0	0	0	512	1	
1	0	0	0	0	505	1	
2	0	0	0	0	496	1	
3	0	0	0	0	498	1	
4	0	0	0	0	502	2	
5	0	0	0	0	515	1	
6	0	0	0	0	516	1	
7	0	0	0	0	515	1	
8	0	0	0	0	511	1	
9	0	0	0	0	507	1	
10	0	0	0	0	518	1	
11	0	0	0	0	519	2	
12	0	0	0	0	524	2	
13	0	0	0	0	526	1	
14	0	0	0	0	514	2	
15	0	0	0	0	492	1	
0	0	0	0	0	484	1	
1	0	0	0	0	484	1	
2	0	0	0	0	488	1	
3	0	0	0	0	495	1	
4	0	0	0	0	509	3	
5	0	0	0	0	517	1	
6	0	0	0	0	519	1	
7	0	0	0	0	519	1	
8	0	0	0	0	518	1	
9	0	0	0	0	517	1	
10	0	0	0	0	514	1	
11	0	0	0	0	514	2	
12	0	0	0	0	512	3	
13	0	0	0	0	514	1	
14	0	0	0	0	510	1	
15	0	0	0	0	507	1	
0	0	0	0	0	503	1	
1	0	0	0	0	505	1	
2	0	0	0	0	507	1	
3	0	0	0	0	508	2	
4	0	0	0	0	508	3	
5	0	0	0	0	510	1	
6	0	0	0	0	512	1	
7	0	0	0	0	522	1	
8	0	0	0	0	543	1	
9	0	0	0	0	551	2	
10	0	0	0	0	528	2	
11	0	0	0	0	503	1	
12	0	0	0	0	478	3	
13	0	0	0	0	469	1	
14	0	0	0	0	471	1	
15	0	0	0	0	482	0	
0	0	0	0	0	502	1	
1	0	0	0	0	512	1	
2	0	0	0	0	517	1	
3	0	0	0	0	520	2	
4	0	0	0	0	519	3	
5	0	0	0	0	516	1	
6	0	0	0	0	513	1	
7	0	0	0	0	509	1	
8	0	0	0	0	508	1	
9	0	0	0	0	511	1	
10	0	0	0	0	515	1	
11	0	0	0	0	515	2	
12	0	0	0	0	512	3	
13	0	0	0	0	511	1	
14	0	0	0	0	507	1	
15	0	0	0	0	508	1	
0	0	0	0	0	535	1	
1	0	0	0	0	534	2	
2	0	0	0	0	526	2	
3	0	0	0	0	524	2	
4	0	0	0	0	506	3	
5	0	0	0	0	493	1	
6	0	0	0	0	483	1	
7	0	0	0	0	481	1	
8	0	0	0	0	484	1	
9	0	0	0	0	497	1	
10	0	0	0	0	506	1	
11	0	0	0	0	508	1	
12	0	0	0	0	505	3	
13	0	0	0	0	502	1	
14	0	0	0	0	517	1	
15	0	0	0	0	519	1	
0	0	0	0	0	518	1	
1	0	0	0	0	511	1	
2	0	0	0	0	512	1	
3	0	0	0	0	551	2	
4	0	0	0	0	564	4	
5	0	0	0	0	536	2	
6	0	0	0	0	497	1	
7	0	0	0	0	463	1	
8	0	0	0	0	448	1	
9	0	0	0	0	462	1	
10	0	0	0	0	480	1	
11	0	0	0	0	503	2	
12	0	0	0	0	518	3	
13	0	0	0	0	524	2	
14	0	0	0	0	523	1	
15	0	0	0	0	520	1	
0	0	0	0	0	519	1	
1	0	0	0	0	515	1	
2	0	0	0	0	518	1	
3	0	0	0	0	514	2	
4	0	0	0	0	513	3	
5	0	0	0	0	515	2	
6	0	0	0	0	521	1	
7	0	0	0	0	536	2	
8	0	0	0	0	550	1	
9	0	0	0	0	533	2	
10	0	0	0	0	510	1	
11	0	0	0	0	492	1	
12	0	0	0	0	479	1	
13	0	0	0	0	484	1	
14	0	0	0	0	496	1	
15	0	0	0	0	504	1	
0	0	0	0	0	499	1	
1	0	0	0	0	499	1	
2	0	0	0	0	510	1	
3	0	0	0	0	512	1	
4	0	0	0	0	511	2	
5	0	0	0	0	511	1	
6	0	0	0	0	508	1	
7	0	0	0	0	507	1	
8	0	0	0	0	506	1	
9	0	0	0	0	514	1	
10	0	0	0	0	514	1	
11	0	0	0	0	543	2	
12	0	0	0	0	595	4	
13	0	0	0	0	607	2	
14	0	0	0	0	568	2	
15	0	0	0	0	521	1	
0	0	0	0	0	544	2	
1	0	0	0	0	541	2	
2	0	0	0	0	457	0	
3	0	0	0	0	390	1	
4	0	0	0	0	363	2	
5	0	0	0	0	382	1	
6	0	0	0	0	420	1	
7	0	0	0	0	465	1	
8	0	0	0	0	502	1	
9	0	0	0	0	534	2	
10	0	0	0	0	540	1	
11	0	0	0	0	536	2	
12	0	0	0	0	530	3	
13	0	0	0	0	527	2	
14	0	0	0	0	524	1	
15	0	0	0	0	524	2	
0	0	0	0	0	525	1	
1	0	0	0	0	524	1	
2	0	0	0	0	524	1	
3	0	0	0	0	519	2	
4	0	0	0	0	518	3	
5	0	0	0	0	516	1	
6	0	0	0	0	515	1	
7	0	0	0	0	514	1	
8	0	0	0	0	514	1	
9	0	0	0	0	515	1	
10	0	0	0	0	515	1	
11	0	0	0	0	513	2	
12	0	0	0	0	513	3	
13	0	0	0	0	512	1	
14	0	0	0	0	511	1	
15	0	0	0	0	512	1	
0	0	0	0	0	510	1	
1	0	0	0	0	507	1	
2	0	0	0	0	511	1	
3	0	0	0	0	524	2	
4	0	0	0	0	530	3	
5	0	0	0	0	529	2	
6	0	0	0	0	511	1	
7	0	0	0	0	495	0	
8	0	0	0	0	478	1	
9	0	0	0	0	480	1	
10	0	0	0	0	493	1	
11	0	0	0	0	502	2	
12	0	0	0	0	508	3	
13	0	0	0	0	512	1	
14	0	0	0	0	514	1	
15	0	0	0	0	515	1	
0	0	0	0	0	513	1	
1	0	0	0	0	512	1	
2	0	0	0	0	513	1	
3	0	0	0	0	512	2	
4	0	0	0	0	512	3	
5	0	0	0	0	512	1	
6	0	0	0	0	513	1	
7	0	0	0	0	509	1	
8	0	0	0	0	510	1	
9	0	0	0	0	508	1	
10	0	0	0	0	508	1	
11	0	0	0	0	512	2	
12	0	0	0	0	512	3	
13	0	0	0	0	518	1	
14	0	0	0	0	524	1	
15	0	0	0	0	515	1	
0	0	0	0	0	507	1	
1	0	0	0	0	506	1	
2	0	0	0	0	501	1	
3	0	0	0	0	492	1	
4	0	0	0	0	499	3	
5	0	0	0	0	500	1	
6	0	0	0	0	503	1	
7	0	0	0	0	503	1	
8	0	0	0	0	504	1	
9	0	0	0	0	509	1	
10	0	0	0	0	515	1	
11	0	0	0	0	522	2	
12	0	0	0	0	544	3	
13	0	0	0	0	551	1	
14	0	0	0	0	526	2	
15	0	0	0	0	502	1	
0	0	0	0	0	486	1	
1	0	0	0	0	479	1	
2	0	0	0	0	483	1	
3	0	0	0	0	489	1	
4	0	0	0	0	500	2	
5	0	0	0	0	496	1	
6	0	0	0	0	498	1	
7	0	0	0	0	518	1	
8	0	0	0	0	527	1	
9	0	0	0	0	521	2	
10	0	0	0	0	515	1	
11	0	0	0	0	511	1	
12	0	0	0	0	508	2	
13	0	0	0	0	511	1	
14	0	0	0	0	534	2	
15	0	0	0	0	592	2	
0	0	0	0	0	582	2	
1	0	0	0	0	524	1	
2	0	0	0	0	468	1	
3	0	0	0	0	429	1	
4	0	0	0	0	434	1	
5	0	0	0	0	459	1	
6	0	0	0	0	483	1	
7	0	0	0	0	508	1	
8	0	0	0	0	515	1	
9	0	0	0	0	527	2	
10	0	0	0	0	524	1	
11	0	0	0	0	513	1	
12	0	0	0	0	511	3	
13	0	0	0	0	511	1	
14	0	0	0	0	509	1	
15	0	0	0	0	510	1	
0	0	0	0	0	512	1	
1	0	0	0	0	516	1	
2	0	0	0	0	518	1	
3	0	0	0	0	524	2	
4	0	0	0	0	585	4	
5	0	0	0	0	632	2	
6	0	0	0	0	579	2	
7	0	0	0	0	539	2	
8	0	0	0	0	486	1	
9	0	0	0	0	427	1	
10	0	0	0	0	407	1	
11	0	0	0	0	412	1	
12	0	0	0	0	436	3	
13	0	0	0	0	481	1	
14	0	0	0	0	499	1	
15	0	0	0	0	518	1	
0	0	0	0	0	526	1	
1	0	0	0	0	523	2	
2	0	0	0	0	523	1	
3	0	0	0	0	518	2	
4	0	0	0	0	510	3	
5	0	0	0	0	510	1	
6	0	0	0	0	518	1	
7	0	0	0	0	520	1	
8	0	0	0	0	519	1	
9	0	0	0	0	518	1	
10	0	0	0	0	516	1	
11	0	0	0	0	517	2	
12	0	0	0	0	515	3	
13	0	0	0	0	513	1	
14	0	0	0	0	514	1	
15	0	0	0	0	514	1	
0	0	0	0	0	513	1	
1	0	0	0	0	515	1	
2	0	0	0	0	516	1	
3	0	0	0	0	511	2	
4	0	0	0	0	510	3	
5	0	0	0	0	508	1	
6	0	0	0	0	510	1	
7	0	0	0	0	510	1	
8	0	0	0	0	515	1	
9	0	0	0	0	584	2	
10	0	0	0	0	599	2	
11	0	0	0	0	566	2	
12	0	0	0	0	520	3	
13	0	0	0	0	471	1	
14	0	0	0	0	428	1	
15	0	0	0	0	460	1	
0	0	0	0	0	460	1	
1	0	0	0	0	454	1	
2	0	0	0	0	485	1	
3	0	0	0	0	479	1	
4	0	0	0	0	487	3	
5	0	0	0	0	491	1	
6	0	0	0	0	495	1	
7	0	0	0	0	512	1	
8	0	0	0	0	518	1	
9	0	0	0	0	520	1	
10	0	0	0	0	523	1	
11	0	0	0	0	526	2	
12	0	0	0	0	524	3	
13	0	0	0	0	523	1	
14	0	0	0	0	523	2	
15	0	0	0	0	520	1	
0	0	0	0	0	519	1	
1	0	0	0	0	518	1	
2	0	0	0	0	519	1	
3	0	0	0	0	517	2	
4	0	0	0	0	515	3	
5	0	0	0	0	519	1	
6	0	0	0	0	537	2	
7	0	0	0	0	536	2	
8	0	0	0	0	521	1	
9	0	0	0	0	502	1	
10	0	0	0	0	483	1	
11	0	0	0	0	473	1	
12	0	0	0	0	483	3	
13	0	0	0	0	495	1	
14	0	0	0	0	506	1	
15	0	0	0	0	517	1	
0	0	0	0	0	530	1	
1	0	0	0	0	534	2	
2	0	0	0	0	537	2	
3	0	0	0	0	559	2	
4	0	0	0	0	593	2	
5	0	0	0	0	593	2	
6	0	0	0	0	533	2	
7	0	0	0	0	453	1	
8	0	0	0	0	402	1	
9	0	0	0	0	393	1	
10	0	0	0	0	401	1	
11	0	0	0	0	436	1	
12	0	0	0	0	482	1	
13	0	0	0	0	525	2	
14	0	0	0	0	542	2	
15	0	0	0	0	537	2	
0	0	0	0	0	531	1	
1	0	0	0	0	523	2	
2	0	0	0	0	523	2	
3	0	0	0	0	524	1	
4	0	0	0	0	523	2	
5	0	0	0	0	520	1	
6	0	0	0	0	519	1	
7	0	0	0	0	519	1	
8	0	0	0	0	526	1	
9	0	0	0	0	526	1	
10	0	0	0	0	523	1	
11	0	0	0	0	510	2	
12	0	0	0	0	495	3	
13	0	0	0	0	491	1	
14	0	0	0	0	491	1	
15	0	0	0	0	497	1	
0	0	0	0	0	507	1	
1	0	0	0	0	512	1	
2	0	0	0	0	513	1	
3	0	0	0	0	513	1	
4	0	0	0	0	513	3	
5	0	0	0	0	514	1	
6	0	0	0	0	516	1	
7	0	0	0	0	514	1	
8	0	0	0	0	514	1	
9	0	0	0	0	513	1	
10	0	0	0	0	512	1	
11	0	0	0	0	511	2	
12	0	0	0	0	510	3	
13	0	0	0	0	510	1	
14	0	0	0	0	511	1	
15	0	0	0	0	510	1	
0	0	0	0	0	510	1	
1	0	0	0	0	509	1	
2	0	0	0	0	516	1	
3	0	0	0	0	524	2	
4	0	0	0	0	520	3	
5	0	0	0	0	515	1	
6	0	0	0	0	515	1	
7	0	0	0	0	515	1	
8	0	0	0	0	587	2	
9	0	0	0	0	592	2	
10	0	0	0	0	593	2	
11	0	0	0	0	537	2	
12	0	0	0	0	445	3	
13	0	0	0	0	415	1	
14	0	0	0	0	386	1	
15	0	0	0	0	376	1	
0	0	0	0	0	411	0	
1	0	0	0	0	463	1	
2	0	0	0	0	508	1	
3	0	0	0	0	524	2	
4	0	0	0	0	575	4	
5	0	0	0	0	638	3	
6	0	0	0	0	591	2	
7	0	0	0	0	527	1	
8	0	0	0	0	460	1	
9	0	0	0	0	440	1	
10	0	0	0	0	467	1	
11	0	0	0	0	484	1	
12	0	0	0	0	504	3	
13	0	0	0	0	516	1	
14	0	0	0	0	516	1	
15	0	0	0	0	516	1	
0	0	0	0	0	516	1	
1	0	0	0	0	519	1	
2	0	0	0	0	524	2	
3	0	0	0	0	523	2	
4	0	0	0	0	541	3	
5	0	0	0	0	552	2	
6	0	0	0	0	534	2	
7	0	0	0	0	510	1	
8	0	0	0	0	488	1	
9	0	0	0	0	486	1	
10	0	0	0	0	492	1	
11	0	0	0	0	502	2	
12	0	0	0	0	507	3	
13	0	0	0	0	512	1	
14	0	0	0	0	515	1	
15	0	0	0	0	524	2	
0	0	0	0	0	522	1	
1	0	0	0	0	514	1	
2	0	0	0	0	505	1	
3	0	0	0	0	500	2	
4	0	0	0	0	502	3	
5	0	0	0	0	504	1	
6	0	0	0	0	521	1	
7	0	0	0	0	525	2	
8	0	0	0	0	523	1	
9	0	0	0	0	523	2	
10	0	0	0	0	511	1	
11	0	0	0	0	511	2	
12	0	0	0	0	503	2	
13	0	0	0	0	495	1	
14	0	0	0	0	493	1	
15	0	0	0	0	487	1	
0	0	0	0	0	495	1	
1	0	0	0	0	506	1	
2	0	0	0	0	514	1	
3	0	0	0	0	519	1	
4	0	0	0	0	519	2	
5	0	0	0	0	516	1	
6	0	0	0	0	513	1	
7	0	0	0	0	510	1	
8	0	0	0	0	511	1	
9	0	0	0	0	511	1	
10	0	0	0	0	510	1	
11	0	0	0	0	512	1	
12	0	0	0	0	516	2	
13	0	0	0	0	535	2	
14	0	0	0	0	541	2	
15	0	0	0	0	537	2	
0	0	0	0	0	527	1	
1	0	0	0	0	565	2	
2	0	0	0	0	535	2	
3	0	0	0	0	495	1	
4	0	0	0	0	453	3	
5	0	0	0	0	430	1	
6	0	0	0	0	438	1	
7	0	0	0	0	444	1	
8	0	0	0	0	471	1	
9	0	0	0	0	499	1	
10	0	0	0	0	524	2	
11	0	0	0	0	526	2	
12	0	0	0	0	525	3	
13	0	0	0	0	524	1	
14	0	0	0	0	520	1	
15	0	0	0	0	523	1	
0	0	0	0	0	519	1	
1	0	0	0	0	517	1	
2	0	0	0	0	516	1	
3	0	0	0	0	518	2	
4	0	0	0	0	515	3	
5	0	0	0	0	514	1	
6	0	0	0	0	515	1	
7	0	0	0	0	513	1	
8	0	0	0	0	515	1	
9	0	0	0	0	515	1	
10	0	0	0	0	514	1	
11	0	0	0	0	514	2	
12	0	0	0	0	511	3	
13	0	0	0	0	511	1	
14	0	0	0	0	512	1	
15	0	0	0	0	511	1	
0	0	0	0	0	509	1	
1	0	0	0	0	508	1	
2	0	0	0	0	512	1	
3	0	0	0	0	511	2	
4	0	0	0	0	512	3	
5	0	0	0	0	512	1	
6	0	0	0	0	505	1	
7	0	0	0	0	500	1	
8	0	0	0	0	498	1	
9	0	0	0	0	499	1	
10	0	0	0	0	505	1	
11	0	0	0	0	512	2	
12	0	0	0	0	510	3	
13	0	0	0	0	511	1	
14	0	0	0	0	511	1	
15	0	0	0	0	511	1	
0	0	0	0	0	512	1	
1	0	0	0	0	510	1	
2	0	0	0	0	512	1	
3	0	0	0	0	510	2	
4	0	0	0	0	510	3	
5	0	0	0	0	508	1	
6	0	0	0	0	508	1	
7	0	0	0	0	516	1	
8	0	0	0	0	519	1	
9	0	0	0	0	512	1	
10	0	0	0	0	508	1	
11	0	0	0	0	504	1	
12	0	0	0	0	499	3	
13	0	0	0	0	502	1	
14	0	0	0	0	505	1	
15	0	0	0	0	510	1	
0	0	0	0	0	510	1	
1	0	0	0	0	510	1	
2	0	0	0	0	512	1	
3	0	0	0	0	509	2	
4	0	0	0	0	511	3	
5	0	0	0	0	511	1	
6	0	0	0	0	518	1	
7	0	0	0	0	545	2	
8	0	0	0	0	543	2	
9	0	0	0	0	523	1	
10	0	0	0	0	503	1	
11	0	0	0	0	478	1	
12	0	0	0	0	470	3	
13	0	0	0	0	480	1	
14	0	0	0	0	511	1	
15	0	0	0	0	544	2	
0	0	0	0	0	539	2	
1	0	0	0	0	518	1	
2	0	0	0	0	490	1	
3	0	0	0	0	470	1	
4	0	0	0	0	465	3	
5	0	0	0	0	483	1	
6	0	0	0	0	500	1	
7	0	0	0	0	512	1	
8	0	0	0	0	519	1	
9	0	0	0	0	520	1	
10	0	0	0	0	523	1	
11	0	0	0	0	520	1	
12	0	0	0	0	518	2	
13	0	0	0	0	518	1	
14	0	0	0	0	514	1	
15	0	0	0	0	513	1	
0	0	0	0	0	511	1	
1	0	0	0	0	513	1	
2	0	0	0	0	511	1	
3	0	0	0	0	511	1	
4	0	0	0	0	511	2	
5	0	0	0	0	518	1	
6	0	0	0	0	527	2	
7	0	0	0	0	531	2	
8	0	0	0	0	529	1	
9	0	0	0	0	526	2	
10	0	0	0	0	520	1	
11	0	0	0	0	569	2	
12	0	0	0	0	571	2	
13	0	0	0	0	533	2	
14	0	0	0	0	480	1	
15	0	0	0	0	483	1	
0	0	0	0	0	468	1	
1	0	0	0	0	428	1	
2	0	0	0	0	408	0	
3	0	0	0	0	415	1	
4	0	0	0	0	459	3	
5	0	0	0	0	493	1	
6	0	0	0	0	515	1	
7	0	0	0	0	530	2	
8	0	0	0	0	536	1	
9	0	0	0	0	533	2	
10	0	0	0	0	529	1	
11	0	0	0	0	528	2	
12	0	0	0	0	526	3	
13	0	0	0	0	524	2	
14	0	0	0	0	520	2	
15	0	0	0	0	517	1	
0	0	0	0	0	518	1	
1	0	0	0	0	527	1	
2	0	0	0	0	530	1	
3	0	0	0	0	526	2	
4	0	0	0	0	533	3	
5	0	0	0	0	523	2	
6	0	0	0	0	503	1	
7	0	0	0	0	480	1	
8	0	0	0	0	478	1	
9	0	0	0	0	485	1	
10	0	0	0	0	514	1	
11	0	0	0	0	556	2	
12	0	0	0	0	548	3	
13	0	0	0	0	521	1	
14	0	0	0	0	486	1	
15	0	0	0	0	458	1	
0	0	0	0	0	464	1	
1	0	0	0	0	482	1	
2	0	0	0	0	500	1	
3	0	0	0	0	514	1	
4	0	0	0	0	519	3	
5	0	0	0	0	520	2	
6	0	0	0	0	519	2	
7	0	0	0	0	518	1	
8	0	0	0	0	516	1	
9	0	0	0	0	517	1	
10	0	0	0	0	516	1	
11	0	0	0	0	516	2	
12	0	0	0	0	517	3	
13	0	0	0	0	607	2	
14	0	0	0	0	633	3	
15	0	0	0	0	572	1	
0	0	0	0	0	552	2	
1	0	0	0	0	544	2	
2	0	0	0	0	516	1	
3	0	0	0	0	456	1	
4	0	0	0	0	385	3	
5	0	0	0	0	355	0	
6	0	0	0	0	383	1	
7	0	0	0	0	414	0	
8	0	0	0	0	461	1	
9	0	0	0	0	502	1	
10	0	0	0	0	519	1	
11	0	0	0	0	531	2	
12	0	0	0	0	527	3	
13	0	0	0	0	527	2	
14	0	0	0	0	526	2	
15	0	0	0	0	527	1	
0	0	0	0	0	530	1	
1	0	0	0	0	534	2	
2	0	0	0	0	529	2	
3	0	0	0	0	527	2	
4	0	0	0	0	521	3	
5	0	0	0	0	519	1	
6	0	0	0	0	516	2	
7	0	0	0	0	515	2	
8	0	0	0	0	515	1	
9	0	0	0	0	514	1	
10	0	0	0	0	528	2	
11	0	0	0	0	531	2	
12	0	0	0	0	526	3	
13	0	0	0	0	516	1	
14	0	0	0	0	508	1	
15	0	0	0	0	495	1	
0	0	0	0	0	496	1	
1	0	0	0	0	512	1	
2	0	0	0	0	526	2	
3	0	0	0	0	527	2	
4	0	0	0	0	510	3	
5	0	0	0	0	498	1	
6	0	0	0	0	492	1	
7	0	0	0	0	485	1	
8	0	0	0	0	487	1	
9	0	0	0	0	498	1	
10	0	0	0	0	511	1	
11	0	0	0	0	516	2	
12	0	0	0	0	517	2	
13	0	0	0	0	515	1	
14	0	0	0	0	513	1	
15	0	0	0	0	513	1	
0	0	0	0	0	513	1	
1	0	0	0	0	512	1	
2	0	0	0	0	511	1	
3	0	0	0	0	509	1	
4	0	0	0	0	511	2	
5	0	0	0	0	514	2	
6	0	0	0	0	548	2	
7	0	0	0	0	583	2	
8	0	0	0	0	571	2	
9	0	0	0	0	524	1	
10	0	0	0	0	494	1	
11	0	0	0	0	483	1	
12	0	0	0	0	478	2	
13	0	0	0	0	449	1	
14	0	0	0	0	455	1	
15	0	0	0	0	495	1	
0	0	0	0	0	494	1	
1	0	0	0	0	496	1	
2	0	0	0	0	477	1	
3	0	0	0	0	475	1	
4	0	0	0	0	491	3	
5	0	0	0	0	494	1	
6	0	0	0	0	504	1	
7	0	0	0	0	515	1	
8	0	0	0	0	519	1	
9	0	0	0	0	526	2	
10	0	0	0	0	527	2	
11	0	0	0	0	524	2	
12	0	0	0	0	523	3	
13	0	0	0	0	522	1	
14	0	0	0	0	519	2	
15	0	0	0	0	519	1	
0	0	0	0	0	516	1	
1	0	0	0	0	516	1	
2	0	0	0	0	518	1	
3	0	0	0	0	516	2	
4	0	0	0	0	515	3	
5	0	0	0	0	515	1	
6	0	0	0	0	513	1	
7	0	0	0	0	512	1	
8	0	0	0	0	512	1	
9	0	0	0	0	508	1	
10	0	0	0	0	507	1	
11	0	0	0	0	507	2	
12	0	0	0	0	507	3	
13	0	0	0	0	509	1	
14	0	0	0	0	506	1	
15	0	0	0	0	511	1	
0	0	0	0	0	510	1	
1	0	0	0	0	510	1	
2	0	0	0	0	511	1	
3	0	0	0	0	512	1	
4	0	0	0	0	510	3	
5	0	0	0	0	511	1	
6	0	0	0	0	510	1	
7	0	0	0	0	514	1	
8	0	0	0	0	513	1	
9	0	0	0	0	519	1	
10	0	0	0	0	519	1	
11	0	0	0	0	506	2	
12	0	0	0	0	497	3	
13	0	0	0	0	495	1	
14	0	0	0	0	497	1	
15	0	0	0	0	497	1	
0	0	0	0	0	505	1	
1	0	0	0	0	510	1	
2	0	0	0	0	514	1	
3	0	0	0	0	514	2	
4	0	0	0	0	515	3	
5	0	0	0	0	513	1	
6	0	0	0	0	514	1	
7	0	0	0	0	513	1	
8	0	0	0	0	512	1	
9	0	0	0	0	511	1	
10	0	0	0	0	508	1	
11	0	0	0	0	508	2	
12	0	0	0	0	508	3	
13	0	0	0	0	509	1	
14	0	0	0	0	512	1	
15	0	0	0	0	510	1	
0	0	0	0	0	511	1	
1	0	0	0	0	512	1	
2	0	0	0	0	511	1	
3	0	0	0	0	511	2	
4	0	0	0	0	512	3	
5	0	0	0	0	511	1	
6	0	0	0	0	511	1	
7	0	0	0	0	510	1	
8	0	0	0	0	509	1	
9	0	0	0	0	508	1	
10	0	0	0	0	509	1	
11	0	0	0	0	509	2	
12	0	0	0	0	508	3	
13	0	0	0	0	507	1	
14	0	0	0	0	504	1	
15	0	0	0	0	505	1	
0	0	0	0	0	506	1	
1	0	0	0	0	507	1	
2	0	0	0	0	508	1	
3	0	0	0	0	511	2	
4	0	0	0	0	511	2	
5	0	0	0	0	512	1	
6	0	0	0	0	516	1	
7	0	0	0	0	519	1	
8	0	0	0	0	519	1	
9	0	0	0	0	508	1	
10	0	0	0	0	502	1	
11	0	0	0	0	499	1	
12	0	0	0	0	501	1	
13	0	0	0	0	506	1	
14	0	0	0	0	508	1	
15	0	0	0	0	509	1	
0	0	0	0	0	509	1	
1	0	0	0	0	512	1	
2	0	0	0	0	515	1	
3	0	0	0	0	513	1	
4	0	0	0	0	512	2	
5	0	0	0	0	512	1	
6	0	0	0	0	525	2	
7	0	0	0	0	543	2	
8	0	0	0	0	560	2	
9	0	0	0	0	550	2	
10	0	0	0	0	519	1	
11	0	0	0	0	482	1	
12	0	0	0	0	450	3	
13	0	0	0	0	440	1	
14	0	0	0	0	456	1	
15	0	0	0	0	480	1	
0	0	0	0	0	504	1	
1	0	0	0	0	519	1	
2	0	0	0	0	525	1	
3	0	0	0	0	521	2	
4	0	0	0	0	519	3	
5	0	0	0	0	512	1	
6	0	0	0	0	510	1	
7	0	0	0	0	511	1	
8	0	0	0	0	515	1	
9	0	0	0	0	515	1	
10	0	0	0	0	513	1	
11	0	0	0	0	513	2	
12	0	0	0	0	513	3	
13	0	0	0	0	511	1	
14	0	0	0	0	510	1	
15	0	0	0	0	511	1	
0	0	0	0	0	509	1	
1	0	0	0	0	509	1	
2	0	0	0	0	510	1	
3	0	0	0	0	513	1	
4	0	0	0	0	513	3	
5	0	0	0	0	513	2	
6	0	0	0	0	511	1	
7	0	0	0	0	513	1	
8	0	0	0	0	511	1	
9	0	0	0	0	511	1	
10	0	0	0	0	513	1	
11	0	0	0	0	515	2	
12	0	0	0	0	528	3	
13	0	0	0	0	527	2	
14	0	0	0	0	517	1	
15	0	0	0	0	510	1	
0	0	0	0	0	498	1	
1	0	0	0	0	496	1	
2	0	0	0	0	492	1	
3	0	0	0	0	492	1	
4	0	0	0	0	488	3	
5	0	0	0	0	495	1	
6	0	0	0	0	503	1	
7	0	0	0	0	508	1	
8	0	0	0	0	513	1	
9	0	0	0	0	513	1	
10	0	0	0	0	517	1	
11	0	0	0	0	515	2	
12	0	0	0	0	512	3	
13	0	0	0	0	512	1	
14	0	0	0	0	512	1	
15	0	0	0	0	512	1	
0	0	0	0	0	511	1	
1	0	0	0	0	508	1	
2	0	0	0	0	511	1	
3	0	0	0	0	512	2	
4	0	0	0	0	511	3	
5	0	0	0	0	512	1	
6	0	0	0	0	512	1	
7	0	0	0	0	510	1	
8	0	0	0	0	507	1	
9	0	0	0	0	508	1	
10	0	0	0	0	509	1	
11	0	0	0	0	512	2	
12	0	0	0	0	512	3	
13	0	0	0	0	513	1	
14	0	0	0	0	509	1	
15	0	0	0	0	508	1	
0	0	0	0	0	505	1	
1	0	0	0	0	507	1	
2	0	0	0	0	510	1	
3	0	0	0	0	510	2	
4	0	0	0	0	513	3	
5	0	0	0	0	510	1	
6	0	0	0	0	510	1	
7	0	0	0	0	509	1	
8	0	0	0	0	512	1	
9	0	0	0	0	510	1	
10	0	0	0	0	509	1	
11	0	0	0	0	510	2	
12	0	0	0	0	505	3	
13	0	0	0	0	507	1	
14	0	0	0	0	508	1	
15	0	0	0	0	510	1	
0	0	0	0	0	509	1	
1	0	0	0	0	509	1	
2	0	0	0	0	510	1	
3	0	0	0	0	511	1	
4	0	0	0	0	511	2	
5	0	0	0	0	550	2	
6	0	0	0	0	563	2	
7	0	0	0	0	537	2	
8	0	0	0	0	505	1	
9	0	0	0	0	472	1	
10	0	0	0	0	459	1	
11	0	0	0	0	459	1	
12	0	0	0	0	477	2	
13	0	0	0	0	497	1	
14	0	0	0	0	512	1	
15	0	0	0	0	518	1	
0	0	0	0	0	518	1	
1	0	0	0	0	517	2	
2	0	0	0	0	518	1	
3	0	0	0	0	514	1	
4	0	0	0	0	514	2	
5	0	0	0	0	515	1	
6	0	0	0	0	512	1	
7	0	0	0	0	511	1	
8	0	0	0	0	512	1	
9	0	0	0	0	513	1	
10	0	0	0	0	510	1	
11	0	0	0	0	515	2	
12	0	0	0	0	540	3	
13	0	0	0	0	598	2	
14	0	0	0	0	603	2	
15	0	0	0	0	544	2	
0	0	0	0	0	476	1	
1	0	0	0	0	414	1	
2	0	0	0	0	397	1	
3	0	0	0	0	423	1	
4	0	0	0	0	472	3	
5	0	0	0	0	508	1	
6	0	0	0	0	524	2	
7	0	0	0	0	525	2	
8	0	0	0	0	521	1	
9	0	0	0	0	515	1	
10	0	0	0	0	512	1	
11	0	0	0	0	512	2	
12	0	0	0	0	513	3	
13	0	0	0	0	512	1	
14	0	0	0	0	519	1	
15	0	0	0	0	518	1	
0	0	0	0	0	515	1	
1	0	0	0	0	517	1	
2	0	0	0	0	515	1	
3	0	0	0	0	512	2	
4	0	0	0	0	512	3	
5	0	0	0	0	511	1	
6	0	0	0	0	511	1	
7	0	0	0	0	511	1	
8	0	0	0	0	513	1	
9	0	0	0	0	513	1	
10	0	0	0	0	511	1	
11	0	0	0	0	515	2	
12	0	0	0	0	516	3	
13	0	0	0	0	514	1	
14	0	0	0	0	512	1	
15	0	0	0	0	511	1	
0	0	0	0	0	510	1	
1	0	0	0	0	511	1	
2	0	0	0	0	508	1	
3	0	0	0	0	509	1	
4	0	0	0	0	507	3	
5	0	0	0	0	507	1	
6	0	0	0	0	505	1	
7	0	0	0	0	509	1	
8	0	0	0	0	509	1	
9	0	0	0	0	510	1	
10	0	0	0	0	509	1	
11	0	0	0	0	509	1	
12	0	0	0	0	510	3	
13	0	0	0	0	509	1	
14	0	0	0	0	509	1	
15	0	0	0	0	508	1	
0	0	0	0	0	509	1	
1	0	0	0	0	511	1	
2	0	0	0	0	512	1	
3	0	0	0	0	509	2	
4	0	0	0	0	508	3	
5	0	0	0	0	509	1	
6	0	0	0	0	510	1	
7	0	0	0	0	512	1	
8	0	0	0	0	527	1	
9	0	0	0	0	531	1	
10	0	0	0	0	519	1	
11	0	0	0	0	501	1	
12	0	0	0	0	491	3	
13	0	0	0	0	483	1	
14	0	0	0	0	485	1	
15	0	0	0	0	501	1	
0	0	0	0	0	511	1	
1	0	0	0	0	510	1	
2	0	0	0	0	513	1	
3	0	0	0	0	514	2	
4	0	0	0	0	514	3	
5	0	0	0	0	511	1	
6	0	0	0	0	510	1	
7	0	0	0	0	508	1	
8	0	0	0	0	508	1	
9	0	0	0	0	509	1	
10	0	0	0	0	510	1	
11	0	0	0	0	508	2	
12	0	0	0	0	510	3	
13	0	0	0	0	510	1	
14	0	0	0	0	512	1	
15	0	0	0	0	511	1	
0	0	0	0	0	511	1	
1	0	0	0	0	511	1	
2	0	0	0	0	508	1	
3	0	0	0	0	510	1	
4	0	0	0	0	508	2	
5	0	0	0	0	508	1	
6	0	0	0	0	508	1	
7	0	0	0	0	510	1	
8	0	0	0	0	513	1	
9	0	0	0	0	510	1	
10	0	0	0	0	511	1	
11	0	0	0	0	511	1	
12	0	0	0	0	511	2	
13	0	0	0	0	511	1	
14	0	0	0	0	513	1	
15	0	0	0	0	509	1	
0	0	0	0	0	510	1	
1	0	0	0	0	508	1	
2	0	0	0	0	507	1	
3	0	0	0	0	507	1	
4	0	0	0	0	509	3	
5	0	0	0	0	507	1	
6	0	0	0	0	508	1	
7	0	0	0	0	515	1	
8	0	0	0	0	525	1	
9	0	0	0	0	531	2	
10	0	0	0	0	534	1	
11	0	0	0	0	542	2	
12	0	0	0	0	525	3	
13	0	0	0	0	507	1	
14	0	0	0	0	486	1	
15	0	0	0	0	474	1	
0	0	0	0	0	470	1	
1	0	0	0	0	470	1	
2	0	0	0	0	472	1	
3	0	0	0	0	492	1	
4	0	0	0	0	511	3	
5	0	0	0	0	516	1	
6	0	0	0	0	517	1	
7	0	0	0	0	516	1	
8	0	0	0	0	518	1	
9	0	0	0	0	517	1	
10	0	0	0	0	515	1	
11	0	0	0	0	517	2	
12	0	0	0	0	516	3	
13	0	0	0	0	514	1	
14	0	0	0	0	513	1	
15	0	0	0	0	513	1	
0	0	0	0	0	513	1	
1	0	0	0	0	514	1	
2	0	0	0	0	513	1	
3	0	0	0	0	512	2	
4	0	0	0	0	511	3	
5	0	0	0	0	510	1	
6	0	0	0	0	511	1	
7	0	0	0	0	510	1	
8	0	0	0	0	508	1	
9	0	0	0	0	510	1	
10	0	0	0	0	510	1	
11	0	0	0	0	509	1	
12	0	0	0	0	512	3	
13	0	0	0	0	512	1	
14	0	0	0	0	511	1	
15	0	0	0	0	510	1	
0	0	0	0	0	511	1	
1	0	0	0	0	508	1	
2	0	0	0	0	509	1	
3	0	0	0	0	508	2	
4	0	0	0	0	509	3	
5	0	0	0	0	509	1	
6	0	0	0	0	507	1	
7	0	0	0	0	506	1	
8	0	0	0	0	506	1	
9	0	0	0	0	506	1	
10	0	0	0	0	508	1	
11	0	0	0	0	510	2	
12	0	0	0	0	512	3	
13	0	0	0	0	512	1	
14	0	0	0	0	513	1	
15	0	0	0	0	512	1	
0	0	0	0	0	510	1	
1	0	0	0	0	508	1	
2	0	0	0	0	506	1	
3	0	0	0	0	507	2	
4	0	0	0	0	510	3	
5	0	0	0	0	512	1	
6	0	0	0	0	509	1	
7	0	0	0	0	512	1	
8	0	0	0	0	510	1	
9	0	0	0	0	508	1	
10	0	0	0	0	510	2	
11	0	0	0	0	511	2	
12	0	0	0	0	511	3	
13	0	0	0	0	511	1	
14	0	0	0	0	510	1	
15	0	0	0	0	510	1	
0	0	0	0	0	511	1	
1	0	0	0	0	511	1	
2	0	0	0	0	511	1	
3	0	0	0	0	509	2	
4	0	0	0	0	508	3	
5	0	0	0	0	510	1	
6	0	0	0	0	508	1	
7	0	0	0	0	508	1	
8	0	0	0	0	508	1	
9	0	0	0	0	508	1	
10	0	0	0	0	508	1	
11	0	0	0	0	508	1	
12	0	0	0	0	510	2	
13	0	0	0	0	508	1	
14	0	0	0	0	506	1	
15	0	0	0	0	505	1	
0	0	0	0	0	508	1	
1	0	0	0	0	508	1	
2	0	0	0	0	510	1	
3	0	0	0	0	511	1	
4	0	0	0	0	511	2	
5	0	0	0	0	512	1	
6	0	0	0	0	510	1	
7	0	0	0	0	511	1	
8	0	0	0	0	510	1	
9	0	0	0	0	509	1	
10	0	0	0	0	509	1	
11	0	0	0	0	518	2	
12	0	0	0	0	520	2	
13	0	0	0	0	514	1	
14	0	0	0	0	506	1	
15	0	0	0	0	502	1	
0	0	0	0	0	503	1	
1	0	0	0	0	505	1	
2	0	0	0	0	511	1	
3	0	0	0	0	513	2	
4	0	0	0	0	515	3	
5	0	0	0	0	509	1	
6	0	0	0	0	510	1	
7	0	0	0	0	527	2	
8	0	0	0	0	520	1	
9	0	0	0	0	511	1	
10	0	0	0	0	500	1	
11	0	0	0	0	496	1	
12	0	0	0	0	492	3	
13	0	0	0	0	492	1	
14	0	0	0	0	501	1	
15	0	0	0	0	511	1	
0	0	0	0	0	512	1	
1	0	0	0	0	512	1	
2	0	0	0	0	513	1	
3	0	0	0	0	513	2	
4	0	0	0	0	524	3	
5	0	0	0	0	521	1	
6	0	0	0	0	522	2	
7	0	0	0	0	526	1	
8	0	0	0	0	526	1	
9	0	0	0	0	515	1	
10	0	0	0	0	510	1	
11	0	0	0	0	499	1	
12	0	0	0	0	492	3	
13	0	0	0	0	489	1	
14	0	0	0	0	487	1	
15	0	0	0	0	491	1	
0	0	0	0	0	495	1	
1	0	0	0	0	491	1	
2	0	0	0	0	493	1	
3	0	0	0	0	500	1	
4	0	0	0	0	510	3	
5	0	0	0	0	521	1	
6	0	0	0	0	526	1	
7	0	0	0	0	526	1	
8	0	0	0	0	519	1	
9	0	0	0	0	514	1	
10	0	0	0	0	508	1	
11	0	0	0	0	499	1	
12	0	0	0	0	502	3	
13	0	0	0	0	508	1	
14	0	0	0	0	513	1	
15	0	0	0	0	514	1	
0	0	0	0	0	515	1	
1	0	0	0	0	513	1	
2	0	0	0	0	512	1	
3	0	0	0	0	514	2	
4	0	0	0	0	512	3	
5	0	0	0	0	511	1	
6	0	0	0	0	511	1	
7	0	0	0	0	514	1	
8	0	0	0	0	513	1	
9	0	0	0	0	511	1	
10	0	0	0	0	515	1	
11	0	0	0	0	512	1	
12	0	0	0	0	513	3	
13	0	0	0	0	513	1	
14	0	0	0	0	510	1	
15	0	0	0	0	531	2	
0	0	0	0	0	537	1	
1	0	0	0	0	521	2	
2	0	0	0	0	503	1	
3	0	0	0	0	487	1	
4	0	0	0	0	522	3	
5	0	0	0	0	605	2	
6	0	0	0	0	579	2	
7	0	0	0	0	524	1	
8	0	0	0	0	504	1	
9	0	0	0	0	467	1	
10	0	0	0	0	417	0	
11	0	0	0	0	399	1	
12	0	0	0	0	422	3	
13	0	0	0	0	440	1	
14	0	0	0	0	467	1	
15	0	0	0	0	499	1	
0	0	0	0	0	531	1	
1	0	0	0	0	541	2	
2	0	0	0	0	540	1	
3	0	0	0	0	530	2	
4	0	0	0	0	522	3	
5	0	0	0	0	515	1	
6	0	0	0	0	516	1	
7	0	0	0	0	524	2	
8	0	0	0	0	527	1	
9	0	0	0	0	522	1	
10	0	0	0	0	568	2	
11	0	0	0	0	555	2	
12	0	0	0	0	516	2	
13	0	0	0	0	492	1	
14	0	0	0	0	472	1	
15	0	0	0	0	467	1	
0	0	0	0	0	478	1	
1	0	0	0	0	495	1	
2	0	0	0	0	510	1	
3	0	0	0	0	519	1	
4	0	0	0	0	519	2	
5	0	0	0	0	519	1	
6	0	0	0	0	518	1	
7	0	0	0	0	514	1	
8	0	0	0	0	516	1	
9	0	0	0	0	515	1	
10	0	0	0	0	513	1	
11	0	0	0	0	513	1	
12	0	0	0	0	512	2	
13	0	0	0	0	513	1	
14	0	0	0	0	515	1	
15	0	0	0	0	512	1	
0	0	0	0	0	511	1	
1	0	0	0	0	519	1	
2	0	0	0	0	535	1	
3	0	0	0	0	531	2	
4	0	0	0	0	519	3	
5	0	0	0	0	505	1	
6	0	0	0	0	494	1	
7	0	0	0	0	493	1	
8	0	0	0	0	491	1	
9	0	0	0	0	494	1	
10	0	0	0	0	500	1	
11	0	0	0	0	497	1	
12	0	0	0	0	519	3	
13	0	0	0	0	524	1	
14	0	0	0	0	543	2	
15	0	0	0	0	607	3	
0	0	0	0	0	560	2	
1	0	0	0	0	499	1	
2	0	0	0	0	460	0	
3	0	0	0	0	437	1	
4	0	0	0	0	445	3	
5	0	0	0	0	461	1	
6	0	0	0	0	473	1	
7	0	0	0	0	490	1	
8	0	0	0	0	499	1	
9	0	0	0	0	501	1	
10	0	0	0	0	519	2	
11	0	0	0	0	601	3	
12	0	0	0	0	635	4	
13	0	0	0	0	578	2	
14	0	0	0	0	505	1	
15	0	0	0	0	438	1	
0	0	0	0	0	406	0	
1	0	0	0	0	423	1	
2	0	0	0	0	452	1	
3	0	0	0	0	489	1	
4	0	0	0	0	517	3	
5	0	0	0	0	531	2	
6	0	0	0	0	529	2	
7	0	0	0	0	529	2	
8	0	0	0	0	526	1	
9	0	0	0	0	524	2	
10	0	0	0	0	524	2	
11	0	0	0	0	522	2	
12	0	0	0	0	519	3	
13	0	0	0	0	520	2	
14	0	0	0	0	515	1	
15	0	0	0	0	515	1	
0	0	0	0	0	512	1	
1	0	0	0	0	511	1	
2	0	0	0	0	512	1	
3	0	0	0	0	511	2	
4	0	0	0	0	511	3	
5	0	0	0	0	512	1	
6	0	0	0	0	513	1	
7	0	0	0	0	534	1	
8	0	0	0	0	551	2	
9	0	0	0	0	531	2	
10	0	0	0	0	509	1	
11	0	0	0	0	483	1	
12	0	0	0	0	476	3	
13	0	0	0	0	502	1	
14	0	0	0	0	552	2	
15	0	0	0	0	549	1	
0	0	0	0	0	530	1	
1	0	0	0	0	502	1	
2	0	0	0	0	485	1	
3	0	0	0	0	459	1	
4	0	0	0	0	467	3	
5	0	0	0	0	490	1	
6	0	0	0	0	496	1	
7	0	0	0	0	523	2	
8	0	0	0	0	518	1	
9	0	0	0	0	501	1	
10	0	0	0	0	486	1	
11	0	0	0	0	475	1	
12	0	0	0	0	480	3	
13	0	0	0	0	489	1	
14	0	0	0	0	499	1	
15	0	0	0	0	515	1	
0	0	0	0	0	526	1	
1	0	0	0	0	532	2	
2	0	0	0	0	579	2	
3	0	0	0	0	569	2	
4	0	0	0	0	528	3	
5	0	0	0	0	491	1	
6	0	0	0	0	463	1	
7	0	0	0	0	467	1	
8	0	0	0	0	485	1	
9	0	0	0	0	511	1	
10	0	0	0	0	527	2	
11	0	0	0	0	526	2	
12	0	0	0	0	516	2	
13	0	0	0	0	522	1	
14	0	0	0	0	529	2	
15	0	0	0	0	520	1	
0	0	0	0	0	509	1	
1	0	0	0	0	498	1	
2	0	0	0	0	492	1	
3	0	0	0	0	495	1	
4	0	0	0	0	500	2	
5	0	0	0	0	508	1	
6	0	0	0	0	515	1	
7	0	0	0	0	518	1	
8	0	0	0	0	518	1	
9	0	0	0	0	515	1	
10	0	0	0	0	513	1	
11	0	0	0	0	514	1	
12	0	0	0	0	513	3	
13	0	0	0	0	512	1	
14	0	0	0	0	511	1	
15	0	0	0	0	511	1	
0	0	0	0	0	510	1	
1	0	0	0	0	511	1	
2	0	0	0	0	510	1	
3	0	0	0	0	511	2	
4	0	0	0	0	513	3	
5	0	0	0	0	517	1	
6	0	0	0	0	515	1	
7	0	0	0	0	519	1	
8	0	0	0	0	518	1	
9	0	0	0	0	513	1	
10	0	0	0	0	510	1	
11	0	0	0	0	511	2	
12	0	0	0	0	594	4	
13	0	0	0	0	568	2	
14	0	0	0	0	504	1	
15	0	0	0	0	446	1	
0	0	0	0	0	412	1	
1	0	0	0	0	424	1	
2	0	0	0	0	451	1	
3	0	0	0	0	486	1	
4	0	0	0	0	512	3	
5	0	0	0	0	526	2	
6	0	0	0	0	526	1	
7	0	0	0	0	524	1	
8	0	0	0	0	526	1	
9	0	0	0	0	537	2	
10	0	0	0	0	538	2	
11	0	0	0	0	529	2	
12	0	0	0	0	540	3	
13	0	0	0	0	540	2	
14	0	0	0	0	512	1	
15	0	0	0	0	487	0	
0	0	0	0	0	475	1	
1	0	0	0	0	474	1	
2	0	0	0	0	475	1	
3	0	0	0	0	499	1	
4	0	0	0	0	516	3	
5	0	0	0	0	515	1	
6	0	0	0	0	511	1	
7	0	0	0	0	510	1	
8	0	0	0	0	510	1	
9	0	0	0	0	508	1	
10	0	0	0	0	513	1	
11	0	0	0	0	517	2	
12	0	0	0	0	516	3	
13	0	0	0	0	519	1	
14	0	0	0	0	519	1	
15	0	0	0	0	526	1	
0	0	0	0	0	525	1	
1	0	0	0	0	577	2	
2	0	0	0	0	575	2	
3	0	0	0	0	521	2	
4	0	0	0	0	475	3	
5	0	0	0	0	440	1	
6	0	0	0	0	446	1	
7	0	0	0	0	470	1	
8	0	0	0	0	486	1	
9	0	0	0	0	503	1	
10	0	0	0	0	516	1	
11	0	0	0	0	548	2	
12	0	0	0	0	564	4	
13	0	0	0	0	544	2	
14	0	0	0	0	510	1	
15	0	0	0	0	480	1	
0	0	0	0	0	467	1	
1	0	0	0	0	480	1	
2	0	0	0	0	507	1	
3	0	0	0	0	520	2	
4	0	0	0	0	528	3	
5	0	0	0	0	523	1	
6	0	0	0	0	512	1	
7	0	0	0	0	502	1	
8	0	0	0	0	489	1	
9	0	0	0	0	492	1	
10	0	0	0	0	499	1	
11	0	0	0	0	515	2	
12	0	0	0	0	517	3	
13	0	0	0	0	517	1	
14	0	0	0	0	516	1	
15	0	0	0	0	567	2	
0	0	0	0	0	580	2	
1	0	0	0	0	569	2	
2	0	0	0	0	520	1	
3	0	0	0	0	464	1	
4	0	0	0	0	448	1	
5	0	0	0	0	438	1	
6	0	0	0	0	440	1	
7	0	0	0	0	468	1	
8	0	0	0	0	493	1	
9	0	0	0	0	510	1	
10	0	0	0	0	512	1	
11	0	0	0	0	522	1	
12	0	0	0	0	526	2	
13	0	0	0	0	530	2	
14	0	0	0	0	540	2	
15	0	0	0	0	540	2	
0	0	0	0	0	536	1	
1	0	0	0	0	521	1	
2	0	0	0	0	503	1	
3	0	0	0	0	490	1	
4	0	0	0	0	486	1	
5	0	0	0	0	489	1	
6	0	0	0	0	501	1	
7	0	0	0	0	512	1	
8	0	0	0	0	516	1	
9	0	0	0	0	515	1	
10	0	0	0	0	515	1	
11	0	0	0	0	517	2	
12	0	0	0	0	515	3	
13	0	0	0	0	515	1	
14	0	0	0	0	515	1	
15	0	0	0	0	513	1	
0	0	0	0	0	512	1	
1	0	0	0	0	511	1	
2	0	0	0	0	512	1	
3	0	0	0	0	518	2	
4	0	0	0	0	521	3	
5	0	0	0	0	515	1	
6	0	0	0	0	507	1	
7	0	0	0	0	498	1	
8	0	0	0	0	496	1	
9	0	0	0	0	502	1	
10	0	0	0	0	507	1	
11	0	0	0	0	515	2	
12	0	0	0	0	516	3	
13	0	0	0	0	513	1	
14	0	0	0	0	512	1	
15	0	0	0	0	509	1	
0	0	0	0	0	509	1	
1	0	0	0	0	512	1	
2	0	0	0	0	509	1	
3	0	0	0	0	502	1	
4	0	0	0	0	498	3	
5	0	0	0	0	500	1	
6	0	0	0	0	504	1	
7	0	0	0	0	504	1	
8	0	0	0	0	511	1	
9	0	0	0	0	507	1	
10	0	0	0	0	535	2	
11	0	0	0	0	541	2	
12	0	0	0	0	521	3	
13	0	0	0	0	500	1	
14	0	0	0	0	487	1	
15	0	0	0	0	495	1	
0	0	0	0	0	499	1	
1	0	0	0	0	499	1	
2	0	0	0	0	504	1	
3	0	0	0	0	504	2	
4	0	0	0	0	510	3	
5	0	0	0	0	513	1	
6	0	0	0	0	575	2	
7	0	0	0	0	705	3	
8	0	0	0	0	663	3	
9	0	0	0	0	541	2	
10	0	0	0	0	408	1	
11	0	0	0	0	319	0	
12	0	0	0	0	332	2	
13	0	0	0	0	376	1	
14	0	0	0	0	450	1	
15	0	0	0	0	500	1	
0	0	0	0	0	528	1	
1	0	0	0	0	535	2	
2	0	0	0	0	536	2	
3	0	0	0	0	535	2	
4	0	0	0	0	530	3	
5	0	0	0	0	531	2	
6	0	0	0	0	529	1	
7	0	0	0	0	528	1	
8	0	0	0	0	526	1	
9	0	0	0	0	524	1	
10	0	0	0	0	524	2	
11	0	0	0	0	522	2	
12	0	0	0	0	516	3	
13	0	0	0	0	520	1	
14	0	0	0	0	530	2	
15	0	0	0	0	527	2	
0	0	0	0	0	515	1	
1	0	0	0	0	512	1	
2	0	0	0	0	511	1	
3	0	0	0	0	511	2	
4	0	0	0	0	510	3	
5	0	0	0	0	508	1	
6	0	0	0	0	496	1	
7	0	0	0	0	484	1	
8	0	0	0	0	499	1	
9	0	0	0	0	517	1	
10	0	0	0	0	511	1	
11	0	0	0	0	502	1	
12	0	0	0	0	496	3	
13	0	0	0	0	492	1	
14	0	0	0	0	493	1	
15	0	0	0	0	504	1	
0	0	0	0	0	512	1	
1	0	0	0	0	516	2	
2	0	0	0	0	516	1	
3	0	0	0	0	517	1	
4	0	0	0	0	516	2	
5	0	0	0	0	513	1	
6	0	0	0	0	512	1	
7	0	0	0	0	511	1	
8	0	0	0	0	512	1	
9	0	0	0	0	512	1	
10	0	0	0	0	512	1	
11	0	0	0	0	512	1	
12	0	0	0	0	511	2	
13	0	0	0	0	509	1	
14	0	0	0	0	510	1	
15	0	0	0	0	511	1	
0	0	0	0	0	511	1	
1	0	0	0	0	508	1	
2	0	0	0	0	510	1	
3	0	0	0	0	508	1	
4	0	0	0	0	510	2	
5	0	0	0	0	510	1	
6	0	0	0	0	511	1	
7	0	0	0	0	509	1	
8	0	0	0	0	507	1	
9	0	0	0	0	504	1	
10	0	0	0	0	507	1	
11	0	0	0	0	508	2	
12	0	0	0	0	507	3	
13	0	0	0	0	510	1	
14	0	0	0	0	515	1	
15	0	0	0	0	522	2	
0	0	0	0	0	523	1	
1	0	0	0	0	523	2	
2	0	0	0	0	512	1	
3	0	0	0	0	516	2	
4	0	0	0	0	527	3	
5	0	0	0	0	519	1	
6	0	0	0	0	502	1	
7	0	0	0	0	482	1	
8	0	0	0	0	465	1	
9	0	0	0	0	467	1	
10	0	0	0	0	487	1	
11	0	0	0	0	505	2	
12	0	0	0	0	522	3	
13	0	0	0	0	522	1	
14	0	0	0	0	523	1	
15	0	0	0	0	520	1	
0	0	0	0	0	518	1	
1	0	0	0	0	515	1	
2	0	0	0	0	511	1	
3	0	0	0	0	525	2	
4	0	0	0	0	526	3	
5	0	0	0	0	515	1	
6	0	0	0	0	502	1	
7	0	0	0	0	492	0	
8	0	0	0	0	497	1	
9	0	0	0	0	529	2	
10	0	0	0	0	560	2	
11	0	0	0	0	539	2	
12	0	0	0	0	506	3	
13	0	0	0	0	472	1	
14	0	0	0	0	458	1	
15	0	0	0	0	472	0	
0	0	0	0	0	487	1	
1	0	0	0	0	504	1	
2	0	0	0	0	515	1	
3	0	0	0	0	517	2	
4	0	0	0	0	519	3	
5	0	0	0	0	520	2	
6	0	0	0	0	516	1	
7	0	0	0	0	516	1	
8	0	0	0	0	514	1	
9	0	0	0	0	513	1	
10	0	0	0	0	510	1	
11	0	0	0	0	511	2	
12	0	0	0	0	511	3	
13	0	0	0	0	511	1	
14	0	0	0	0	511	1	
15	0	0	0	0	513	1	
0	0	0	0	0	510	1	
1	0	0	0	0	512	1	
2	0	0	0	0	509	1	
3	0	0	0	0	509	2	
4	0	0	0	0	511	3	
5	0	0	0	0	512	1	
6	0	0	0	0	512	1	
7	0	0	0	0	511	1	
8	0	0	0	0	510	1	
9	0	0	0	0	511	1	
10	0	0	0	0	512	1	
11	0	0	0	0	519	2	
12	0	0	0	0	521	3	
13	0	0	0	0	515	1	
14	0	0	0	0	512	1	
15	0	0	0	0	513	1	
0	0	0	0	0	523	1	
1	0	0	0	0	515	1	
2	0	0	0	0	504	1	
3	0	0	0	0	495	1	
4	0	0	0	0	487	3	
5	0	0	0	0	476	1	
6	0	0	0	0	485	1	
7	0	0	0	0	501	1	
8	0	0	0	0	514	1	
9	0	0	0	0	525	2	
10	0	0	0	0	526	1	
11	0	0	0	0	527	2	
12	0	0	0	0	524	3	
13	0	0	0	0	512	1	
14	0	0	0	0	501	1	
15	0	0	0	0	496	1	
0	0	0	0	0	498	1	
1	0	0	0	0	494	1	
2	0	0	0	0	503	1	
3	0	0	0	0	516	1	
4	0	0	0	0	526	2	
5	0	0	0	0	544	2	
6	0	0	0	0	592	2	
7	0	0	0	0	556	2	
8	0	0	0	0	504	1	
9	0	0	0	0	453	1	
10	0	0	0	0	427	1	
11	0	0	0	0	451	1	
12	0	0	0	0	475	1	
13	0	0	0	0	495	1	
14	0	0	0	0	503	1	
15	0	0	0	0	505	1	
0	0	0	0	0	509	1	
1	0	0	0	0	517	1	
2	0	0	0	0	526	2	
3	0	0	0	0	525	1	
4	0	0	0	0	521	3	
5	0	0	0	0	521	2	
6	0	0	0	0	519	1	
7	0	0	0	0	512	1	
8	0	0	0	0	510	1	
9	0	0	0	0	507	1	
10	0	0	0	0	508	1	
11	0	0	0	0	511	2	
12	0	0	0	0	512	3	
13	0	0	0	0	516	1	
14	0	0	0	0	516	1	
15	0	0	0	0	518	1	
0	0	0	0	0	519	1	
1	0	0	0	0	514	1	
2	0	0	0	0	505	1	
3	0	0	0	0	502	1	
4	0	0	0	0	512	3	
5	0	0	0	0	535	2	
6	0	0	0	0	530	2	
7	0	0	0	0	516	1	
8	0	0	0	0	493	1	
9	0	0	0	0	513	1	
10	0	0	0	0	532	2	
11	0	0	0	0	512	1	
12	0	0	0	0	488	3	
13	0	0	0	0	467	1	
14	0	0	0	0	472	1	
15	0	0	0	0	486	1	
0	0	0	0	0	513	1	
1	0	0	0	0	531	2	
2	0	0	0	0	524	1	
3	0	0	0	0	509	1	
4	0	0	0	0	497	3	
5	0	0	0	0	498	1	
6	0	0	0	0	498	1	
7	0	0	0	0	508	1	
8	0	0	0	0	515	1	
9	0	0	0	0	519	1	
10	0	0	0	0	519	1	
11	0	0	0	0	519	2	
12	0	0	0	0	518	3	
13	0	0	0	0	516	1	
14	0	0	0	0	516	1	
15	0	0	0	0	512	1	
0	0	0	0	0	512	1	
1	0	0	0	0	511	1	
2	0	0	0	0	511	1	
3	0	0	0	0	509	2	
4	0	0	0	0	508	3	
5	0	0	0	0	507	1	
6	0	0	0	0	511	1	
7	0	0	0	0	518	1	
8	0	0	0	0	524	1	
9	0	0	0	0	534	2	
10	0	0	0	0	551	2	
11	0	0	0	0	540	2	
12	0	0	0	0	512	3	
13	0	0	0	0	489	1	
14	0	0	0	0	505	1	
15	0	0	0	0	543	1	
0	0	0	0	0	520	1	
1	0	0	0	0	488	1	
2	0	0	0	0	451	1	
3	0	0	0	0	435	1	
4	0	0	0	0	448	3	
5	0	0	0	0	464	1	
6	0	0	0	0	495	1	
7	0	0	0	0	513	1	
8	0	0	0	0	524	1	
9	0	0	0	0	527	2	
10	0	0	0	0	526	1	
11	0	0	0	0	530	2	
12	0	0	0	0	529	3	
13	0	0	0	0	523	1	
14	0	0	0	0	513	1	
15	0	0	0	0	511	1	
0	0	0	0	0	508	1	
1	0	0	0	0	508	1	
2	0	0	0	0	511	1	
3	0	0	0	0	511	2	
4	0	0	0	0	511	3	
5	0	0	0	0	511	1	
6	0	0	0	0	512	1	
7	0	0	0	0	517	1	
8	0	0	0	0	517	1	
9	0	0	0	0	518	1	
10	0	0	0	0	527	2	
11	0	0	0	0	539	2	
12	0	0	0	0	562	3	
13	0	0	0	0	539	2	
14	0	0	0	0	568	2	
15	0	0	0	0	545	2	
0	0	0	0	0	481	1	
1	0	0	0	0	431	1	
2	0	0	0	0	436	1	
3	0	0	0	0	531	2	
4	0	0	0	0	559	3	
5	0	0	0	0	532	2	
6	0	0	0	0	484	1	
7	0	0	0	0	433	1	
8	0	0	0	0	394	0	
9	0	0	0	0	409	1	
10	0	0	0	0	448	1	
11	0	0	0	0	491	1	
12	0	0	0	0	519	2	
13	0	0	0	0	531	2	
14	0	0	0	0	539	2	
15	0	0	0	0	541	2	
0	0	0	0	0	537	1	
1	0	0	0	0	532	2	
2	0	0	0	0	525	1	
3	0	0	0	0	523	2	
4	0	0	0	0	560	4	
5	0	0	0	0	586	2	
6	0	0	0	0	546	2	
7	0	0	0	0	500	1	
8	0	0	0	0	457	1	
9	0	0	0	0	454	1	
10	0	0	0	0	474	1	
11	0	0	0	0	496	1	
12	0	0	0	0	518	3	
13	0	0	0	0	526	1	
14	0	0	0	0	529	2	
15	0	0	0	0	528	2	
0	0	0	0	0	521	1	
1	0	0	0	0	517	1	
2	0	0	0	0	510	1	
3	0	0	0	0	511	2	
4	0	0	0	0	514	3	
5	0	0	0	0	515	1	
6	0	0	0	0	515	1	
7	0	0	0	0	511	1	
8	0	0	0	0	521	1	
9	0	0	0	0	531	2	
10	0	0	0	0	534	2	
11	0	0	0	0	525	2	
12	0	0	0	0	532	3	
13	0	0	0	0	531	2	
14	0	0	0	0	511	1	
15	0	0	0	0	489	0	
0	0	0	0	0	464	1	
1	0	0	0	0	452	1	
2	0	0	0	0	465	1	
3	0	0	0	0	483	1	
4	0	0	0	0	482	3	
5	0	0	0	0	495	1	
6	0	0	0	0	558	2	
7	0	0	0	0	553	1	
8	0	0	0	0	522	1	
9	0	0	0	0	486	1	
10	0	0	0	0	470	1	
11	0	0	0	0	504	2	
12	0	0	0	0	548	3	
13	0	0	0	0	545	2	
14	0	0	0	0	528	2	
15	0	0	0	0	497	1	
0	0	0	0	0	484	1	
1	0	0	0	0	482	1	
2	0	0	0	0	494	1	
3	0	0	0	0	508	2	
4	0	0	0	0	514	3	
5	0	0	0	0	519	1	
6	0	0	0	0	519	1	
7	0	0	0	0	514	1	
8	0	0	0	0	503	1	
9	0	0	0	0	505	1	
10	0	0	0	0	509	1	
11	0	0	0	0	550	2	
12	0	0	0	0	547	3	
13	0	0	0	0	525	1	
14	0	0	0	0	500	1	
15	0	0	0	0	476	1	
0	0	0	0	0	478	1	
1	0	0	0	0	482	1	
2	0	0	0	0	530	1	
3	0	0	0	0	559	2	
4	0	0	0	0	537	3	
5	0	0	0	0	502	1	
6	0	0	0	0	465	1	
7	0	0	0	0	470	1	
8	0	0	0	0	480	1	
9	0	0	0	0	494	1	
10	0	0	0	0	515	1	
11	0	0	0	0	520	2	
12	0	0	0	0	519	3	
13	0	0	0	0	513	1	
14	0	0	0	0	518	1	
15	0	0	0	0	518	1	
0	0	0	0	0	518	1	
1	0	0	0	0	515	1	
2	0	0	0	0	515	1	
3	0	0	0	0	523	2	
4	0	0	0	0	523	3	
5	0	0	0	0	512	1	
6	0	0	0	0	504	1	
7	0	0	0	0	503	1	
8	0	0	0	0	508	1	
9	0	0	0	0	512	1	
10	0	0	0	0	512	1	
11	0	0	0	0	515	1	
12	0	0	0	0	515	2	
13	0	0	0	0	512	1	
14	0	0	0	0	509	1	
15	0	0	0	0	542	2	
0	0	0	0	0	603	2	
1	0	0	0	0	647	3	
2	0	0	0	0	595	2	
3	0	0	0	0	491	1	
4	0	0	0	0	388	1	
5	0	0	0	0	332	0	
6	0	0	0	0	361	0	
7	0	0	0	0	419	1	
8	0	0	0	0	481	1	
9	0	0	0	0	519	1	
10	0	0	0	0	531	2	
11	0	0	0	0	533	2	
12	0	0	0	0	535	2	
13	0	0	0	0	535	2	
14	0	0	0	0	531	2	
15	0	0	0	0	528	2	
0	0	0	0	0	539	1	
1	0	0	0	0	543	2	
2	0	0	0	0	566	1	
3	0	0	0	0	564	2	
4	0	0	0	0	523	3	
5	0	0	0	0	493	1	
6	0	0	0	0	467	1	
7	0	0	0	0	459	1	
8	0	0	0	0	472	1	
9	0	0	0	0	487	1	
10	0	0	0	0	502	1	
11	0	0	0	0	507	2	
12	0	0	0	0	511	3	
13	0	0	0	0	519	1	
14	0	0	0	0	518	1	
15	0	0	0	0	520	1	
0	0	0	0	0	517	1	
1	0	0	0	0	518	1	
2	0	0	0	0	518	1	
3	0	0	0	0	515	2	
4	0	0	0	0	515	3	
5	0	0	0	0	514	1	
6	0	0	0	0	521	1	
7	0	0	0	0	523	2	
8	0	0	0	0	519	1	
9	0	0	0	0	514	1	
10	0	0	0	0	508	1	
11	0	0	0	0	511	1	
12	0	0	0	0	531	3	
13	0	0	0	0	577	2	
14	0	0	0	0	547	2	
15	0	0	0	0	519	1	
0	0	0	0	0	469	1	
1	0	0	0	0	448	1	
2	0	0	0	0	444	1	
3	0	0	0	0	451	1	
4	0	0	0	0	467	3	
5	0	0	0	0	539	2	
6	0	0	0	0	571	2	
7	0	0	0	0	547	2	
8	0	0	0	0	501	1	
9	0	0	0	0	460	1	
10	0	0	0	0	446	1	
11	0	0	0	0	454	1	
12	0	0	0	0	495	3	
13	0	0	0	0	529	2	
14	0	0	0	0	535	2	
15	0	0	0	0	530	1	
0	0	0	0	0	524	1	
1	0	0	0	0	519	1	
2	0	0	0	0	513	1	
3	0	0	0	0	515	2	
4	0	0	0	0	521	3	
5	0	0	0	0	521	2	
6	0	0	0	0	521	1	
7	0	0	0	0	517	1	
8	0	0	0	0	512	1	
9	0	0	0	0	511	1	
10	0	0	0	0	510	1	
11	0	0	0	0	506	2	
12	0	0	0	0	508	3	
13	0	0	0	0	512	1	
14	0	0	0	0	513	1	
15	0	0	0	0	511	1	
0	0	0	0	0	513	1	
1	0	0	0	0	519	1	
2	0	0	0	0	518	1	
3	0	0	0	0	514	2	
4	0	0	0	0	512	3	
5	0	0	0	0	506	1	
6	0	0	0	0	501	1	
7	0	0	0	0	505	1	
8	0	0	0	0	521	1	
9	0	0	0	0	555	2	
10	0	0	0	0	596	2	
11	0	0	0	0	551	2	
12	0	0	0	0	490	3	
13	0	0	0	0	430	1	
14	0	0	0	0	421	1	
15	0	0	0	0	445	1	
0	0	0	0	0	470	1	
1	0	0	0	0	501	1	
2	0	0	0	0	521	1	
3	0	0	0	0	526	2	
4	0	0	0	0	526	3	
5	0	0	0	0	522	1	
6	0	0	0	0	519	1	
7	0	0	0	0	518	1	
8	0	0	0	0	515	1	
9	0	0	0	0	514	2	
10	0	0	0	0	513	1	
11	0	0	0	0	515	1	
12	0	0	0	0	514	2	
13	0	0	0	0	512	1	
14	0	0	0	0	515	1	
15	0	0	0	0	531	2	
0	0	0	0	0	533	1	
1	0	0	0	0	524	2	
2	0	0	0	0	534	2	
3	0	0	0	0	626	3	
4	0	0	0	0	614	3	
5	0	0	0	0	527	1	
6	0	0	0	0	422	1	
7	0	0	0	0	371	0	
8	0	0	0	0	380	0	
9	0	0	0	0	421	1	
10	0	0	0	0	483	1	
11	0	0	0	0	519	2	
12	0	0	0	0	540	3	
13	0	0	0	0	536	1	
14	0	0	0	0	519	1	
15	0	0	0	0	510	1	
0	0	0	0	0	507	1	
1	0	0	0	0	504	1	
2	0	0	0	0	508	1	
3	0	0	0	0	512	2	
4	0	0	0	0	514	3	
5	0	0	0	0	514	1	
6	0	0	0	0	520	2	
7	0	0	0	0	522	2	
8	0	0	0	0	521	1	
9	0	0	0	0	519	1	
10	0	0	0	0	518	1	
11	0	0	0	0	540	2	
12	0	0	0	0	569	4	
13	0	0	0	0	555	1	
14	0	0	0	0	516	1	
15	0	0	0	0	478	1	
0	0	0	0	0	463	1	
1	0	0	0	0	460	1	
2	0	0	0	0	477	1	
3	0	0	0	0	491	1	
4	0	0	0	0	507	3	
5	0	0	0	0	514	1	
6	0	0	0	0	516	1	
7	0	0	0	0	519	1	
8	0	0	0	0	518	1	
9	0	0	0	0	519	1	
10	0	0	0	0	518	1	
11	0	0	0	0	516	2	
12	0	0	0	0	515	3	
13	0	0	0	0	512	1	
14	0	0	0	0	510	1	
15	0	0	0	0	509	1	
0	0	0	0	0	508	1	
1	0	0	0	0	512	1	
2	0	0	0	0	515	1	
3	0	0	0	0	521	2	
4	0	0	0	0	521	3	
5	0	0	0	0	519	2	
6	0	0	0	0	528	2	
7	0	0	0	0	554	2	
8	0	0	0	0	532	1	
9	0	0	0	0	513	1	
10	0	0	0	0	474	1	
11	0	0	0	0	459	1	
12	0	0	0	0	455	3	
13	0	0	0	0	514	2	
14	0	0	0	0	554	2	
15	0	0	0	0	525	1	
0	0	0	0	0	483	1	
1	0	0	0	0	460	1	
2	0	0	0	0	472	1	
3	0	0	0	0	480	1	
4	0	0	0	0	491	3	
5	0	0	0	0	508	1	
6	0	0	0	0	514	1	
7	0	0	0	0	513	1	
8	0	0	0	0	521	1	
9	0	0	0	0	526	1	
10	0	0	0	0	524	1	
11	0	0	0	0	524	2	
12	0	0	0	0	521	3	
13	0	0	0	0	524	1	
14	0	0	0	0	536	2	
15	0	0	0	0	546	2	
0	0	0	0	0	537	1	
1	0	0	0	0	515	1	
2	0	0	0	0	489	1	
3	0	0	0	0	480	1	
4	0	0	0	0	483	3	
5	0	0	0	0	489	1	
6	0	0	0	0	507	1	
7	0	0	0	0	520	2	
8	0	0	0	0	526	1	
9	0	0	0	0	524	1	
10	0	0	0	0	519	1	
11	0	0	0	0	514	2	
12	0	0	0	0	511	3	
13	0	0	0	0	514	1	
14	0	0	0	0	517	1	
15	0	0	0	0	512	1	
0	0	0	0	0	512	1	
1	0	0	0	0	529	1	
2	0	0	0	0	523	1	
3	0	0	0	0	517	1	
4	0	0	0	0	511	2	
5	0	0	0	0	491	1	
6	0	0	0	0	467	1	
7	0	0	0	0	462	1	
8	0	0	0	0	481	1	
9	0	0	0	0	499	1	
10	0	0	0	0	524	2	
11	0	0	0	0	609	3	
12	0	0	0	0	659	3	
13	0	0	0	0	597	2	
14	0	0	0	0	499	1	
15	0	0	0	0	403	1	
0	0	0	0	0	372	0	
1	0	0	0	0	386	1	
2	0	0	0	0	431	1	
3	0	0	0	0	491	1	
4	0	0	0	0	527	2	
5	0	0	0	0	542	2	
6	0	0	0	0	551	2	
7	0	0	0	0	536	2	
8	0	0	0	0	516	1	
9	0	0	0	0	506	1	
10	0	0	0	0	501	1	
11	0	0	0	0	501	2	
12	0	0	0	0	514	3	
13	0	0	0	0	523	1	
14	0	0	0	0	525	1	
15	0	0	0	0	523	1	
0	0	0	0	0	519	1	
1	0	0	0	0	517	1	
2	0	0	0	0	515	1	
3	0	0	0	0	557	2	
4	0	0	0	0	593	4	
5	0	0	0	0	558	2	
6	0	0	0	0	528	2	
7	0	0	0	0	480	1	
8	0	0	0	0	455	1	
9	0	0	0	0	468	1	
10	0	0	0	0	486	1	
11	0	0	0	0	478	1	
12	0	0	0	0	476	3	
13	0	0	0	0	474	1	
14	0	0	0	0	483	1	
15	0	0	0	0	502	1	
0	0	0	0	0	513	1	
1	0	0	0	0	520	2	
2	0	0	0	0	527	2	
3	0	0	0	0	522	2	
4	0	0	0	0	515	3	
5	0	0	0	0	517	1	
6	0	0	0	0	518	1	
7	0	0	0	0	516	1	
8	0	0	0	0	516	1	
9	0	0	0	0	526	2	
10	0	0	0	0	532	2	
11	0	0	0	0	531	2	
12	0	0	0	0	527	3	
13	0	0	0	0	521	2	
14	0	0	0	0	500	1	
15	0	0	0	0	480	1	
0	0	0	0	0	477	1	
1	0	0	0	0	483	1	
2	0	0	0	0	496	1	
3	0	0	0	0	512	2	
4	0	0	0	0	545	3	
5	0	0	0	0	551	2	
6	0	0	0	0	539	2	
7	0	0	0	0	510	1	
8	0	0	0	0	476	1	
9	0	0	0	0	465	1	
10	0	0	0	0	526	2	
11	0	0	0	0	560	2	
12	0	0	0	0	534	3	
13	0	0	0	0	494	1	
14	0	0	0	0	458	1	
15	0	0	0	0	523	1	
0	0	0	0	0	559	2	
1	0	0	0	0	536	2	
2	0	0	0	0	491	1	
3	0	0	0	0	444	1	
4	0	0	0	0	439	3	
5	0	0	0	0	456	1	
6	0	0	0	0	486	1	
7	0	0	0	0	508	1	
8	0	0	0	0	522	1	
9	0	0	0	0	531	2	
10	0	0	0	0	530	2	
11	0	0	0	0	528	2	
12	0	0	0	0	524	3	
13	0	0	0	0	522	1	
14	0	0	0	0	519	1	
15	0	0	0	0	514	1	
0	0	0	0	0	512	1	
1	0	0	0	0	513	1	
2	0	0	0	0	519	1	
3	0	0	0	0	552	2	
4	0	0	0	0	556	4	
5	0	0	0	0	539	1	
6	0	0	0	0	504	1	
7	0	0	0	0	480	1	
8	0	0	0	0	487	1	
9	0	0	0	0	503	1	
10	0	0	0	0	514	1	
11	0	0	0	0	589	2	
12	0	0	0	0	585	4	
13	0	0	0	0	524	1	
14	0	0	0	0	458	1	
15	0	0	0	0	412	1	
0	0	0	0	0	408	1	
1	0	0	0	0	440	1	
2	0	0	0	0	494	1	
3	0	0	0	0	527	2	
4	0	0	0	0	519	2	
5	0	0	0	0	498	1	
6	0	0	0	0	510	1	
7	0	0	0	0	527	2	
8	0	0	0	0	530	1	
9	0	0	0	0	527	2	
10	0	0	0	0	522	1	
11	0	0	0	0	508	1	
12	0	0	0	0	502	2	
13	0	0	0	0	504	1	
14	0	0	0	0	510	1	
15	0	0	0	0	523	2	
0	0	0	0	0	579	2	
1	0	0	0	0	556	2	
2	0	0	0	0	512	1	
3	0	0	0	0	472	1	
4	0	0	0	0	455	2	
5	0	0	0	0	470	1	
6	0	0	0	0	485	1	
7	0	0	0	0	511	1	
8	0	0	0	0	552	2	
9	0	0	0	0	571	2	
10	0	0	0	0	539	2	
11	0	0	0	0	502	1	
12	0	0	0	0	476	3	
13	0	0	0	0	484	1	
14	0	0	0	0	493	1	
15	0	0	0	0	499	1	
0	0	0	0	0	511	1	
1	0	0	0	0	511	1	
2	0	0	0	0	504	1	
3	0	0	0	0	506	2	
4	0	0	0	0	512	3	
5	0	0	0	0	512	1	
6	0	0	0	0	518	1	
7	0	0	0	0	528	2	
8	0	0	0	0	527	1	
9	0	0	0	0	521	1	
10	0	0	0	0	512	1	
11	0	0	0	0	502	1	
12	0	0	0	0	503	3	
13	0	0	0	0	504	1	
14	0	0	0	0	508	1	
15	0	0	0	0	512	1	
0	0	0	0	0	513	1	
1	0	0	0	0	513	1	
2	0	0	0	0	517	1	
3	0	0	0	0	521	2	
4	0	0	0	0	513	3	
5	0	0	0	0	508	1	
6	0	0	0	0	502	1	
7	0	0	0	0	496	1	
8	0	0	0	0	497	1	
9	0	0	0	0	514	1	
10	0	0	0	0	529	1	
11	0	0	0	0	548	2	
12	0	0	0	0	577	4	
13	0	0	0	0	557	2	
14	0	0	0	0	509	1	
15	0	0	0	0	454	0	
0	0	0	0	0	423	1	
1	0	0	0	0	439	1	
2	0	0	0	0	579	2	
3	0	0	0	0	609	3	
4	0	0	0	0	568	4	
5	0	0	0	0	479	1	
6	0	0	0	0	406	1	
7	0	0	0	0	382	1	
8	0	0	0	0	408	0	
9	0	0	0	0	463	1	
10	0	0	0	0	510	1	
11	0	0	0	0	531	2	
12	0	0	0	0	534	3	
13	0	0	0	0	529	2	
14	0	0	0	0	563	2	
15	0	0	0	0	621	3	
0	0	0	0	0	589	2	
1	0	0	0	0	516	1	
2	0	0	0	0	444	1	
3	0	0	0	0	433	1	
4	0	0	0	0	456	3	
5	0	0	0	0	482	1	
6	0	0	0	0	519	2	
7	0	0	0	0	530	2	
8	0	0	0	0	529	1	
9	0	0	0	0	525	1	
10	0	0	0	0	522	1	
11	0	0	0	0	525	2	
12	0	0	0	0	524	3	
13	0	0	0	0	524	2	
14	0	0	0	0	519	2	
15	0	0	0	0	513	1	
0	0	0	0	0	517	1	
1	0	0	0	0	524	1	
2	0	0	0	0	524	1	
3	0	0	0	0	516	2	
4	0	0	0	0	505	3	
5	0	0	0	0	510	1	
6	0	0	0	0	512	1	
7	0	0	0	0	505	1	
8	0	0	0	0	494	1	
9	0	0	0	0	487	1	
10	0	0	0	0	492	1	
11	0	0	0	0	507	1	
12	0	0	0	0	520	3	
13	0	0	0	0	519	1	
14	0	0	0	0	505	1	
15	0	0	0	0	504	1	
0	0	0	0	0	502	1	
1	0	0	0	0	506	1	
2	0	0	0	0	507	1	
3	0	0	0	0	514	1	
4	0	0	0	0	514	2	
5	0	0	0	0	514	1	
6	0	0	0	0	511	1	
7	0	0	0	0	510	1	
8	0	0	0	0	509	1	
9	0	0	0	0	508	1	
10	0	0	0	0	508	1	
11	0	0	0	0	515	1	
12	0	0	0	0	521	2	
13	0	0	0	0	528	2	
14	0	0	0	0	536	2	
15	0	0	0	0	534	2	
0	0	0	0	0	512	1	
1	0	0	0	0	488	1	
2	0	0	0	0	491	1	
3	0	0	0	0	488	1	
4	0	0	0	0	489	3	
5	0	0	0	0	487	1	
6	0	0	0	0	494	1	
7	0	0	0	0	534	2	
8	0	0	0	0	550	2	
9	0	0	0	0	577	2	
10	0	0	0	0	525	1	
11	0	0	0	0	467	1	
12	0	0	0	0	436	3	
13	0	0	0	0	497	1	
14	0	0	0	0	550	2	
15	0	0	0	0	557	2	
0	0	0	0	0	560	2	
1	0	0	0	0	497	1	
2	0	0	0	0	445	0	
3	0	0	0	0	414	1	
4	0	0	0	0	437	3	
5	0	0	0	0	460	1	
6	0	0	0	0	475	1	
7	0	0	0	0	496	1	
8	0	0	0	0	515	1	
9	0	0	0	0	526	1	
10	0	0	0	0	534	2	
11	0	0	0	0	537	2	
12	0	0	0	0	534	3	
13	0	0	0	0	532	2	
14	0	0	0	0	527	2	
15	0	0	0	0	528	2	
0	0	0	0	0	529	1	
1	0	0	0	0	530	2	
2	0	0	0	0	524	1	
3	0	0	0	0	514	2	
4	0	0	0	0	510	3	
5	0	0	0	0	503	1	
6	0	0	0	0	505	1	
7	0	0	0	0	506	1	
8	0	0	0	0	515	1	
9	0	0	0	0	528	2	
10	0	0	0	0	556	2	
11	0	0	0	0	563	2	
12	0	0	0	0	544	3	
13	0	0	0	0	505	1	
14	0	0	0	0	470	1	
15	0	0	0	0	467	0	
0	0	0	0	0	461	1	
1	0	0	0	0	472	1	
2	0	0	0	0	484	1	
3	0	0	0	0	498	1	
4	0	0	0	0	496	3	
5	0	0	0	0	523	2	
6	0	0	0	0	660	3	
7	0	0	0	0	663	2	
8	0	0	0	0	569	2	
9	0	0	0	0	450	1	
10	0	0	0	0	365	0	
11	0	0	0	0	353	0	
12	0	0	0	0	387	2	
13	0	0	0	0	436	1	
14	0	0	0	0	495	1	
15	0	0	0	0	531	1	
0	0	0	0	0	551	2	
1	0	0	0	0	555	2	
2	0	0	0	0	544	2	
3	0	0	0	0	536	2	
4	0	0	0	0	525	3	
5	0	0	0	0	517	1	
6	0	0	0	0	516	1	
7	0	0	0	0	519	1	
8	0	0	0	0	519	1	
9	0	0	0	0	516	1	
10	0	0	0	0	510	1	
11	0	0	0	0	512	2	
12	0	0	0	0	510	3	
13	0	0	0	0	523	1	
14	0	0	0	0	569	2	
15	0	0	0	0	614	3	
0	0	0	0	0	601	2	
1	0	0	0	0	528	2	
2	0	0	0	0	460	1	
3	0	0	0	0	416	1	
4	0	0	0	0	419	3	
5	0	0	0	0	463	1	
6	0	0	0	0	491	1	
7	0	0	0	0	496	1	
8	0	0	0	0	509	1	
9	0	0	0	0	559	2	
10	0	0	0	0	528	2	
11	0	0	0	0	492	1	
12	0	0	0	0	459	2	
13	0	0	0	0	455	1	
14	0	0	0	0	455	1	
15	0	0	0	0	465	1	
0	0	0	0	0	499	1	
1	0	0	0	0	514	1	
2	0	0	0	0	523	2	
3	0	0	0	0	532	2	
4	0	0	0	0	535	2	
5	0	0	0	0	534	2	
6	0	0	0	0	534	2	
7	0	0	0	0	528	1	
8	0	0	0	0	526	1	
9	0	0	0	0	528	2	
10	0	0	0	0	548	2	
11	0	0	0	0	600	2	
12	0	0	0	0	627	3	
13	0	0	0	0	551	2	
14	0	0	0	0	494	1	
15	0	0	0	0	521	1	
0	0	0	0	0	520	1	
1	0	0	0	0	484	1	
2	0	0	0	0	408	1	
3	0	0	0	0	371	1	
4	0	0	0	0	390	3	
5	0	0	0	0	461	1	
6	0	0	0	0	502	1	
7	0	0	0	0	529	2	
8	0	0	0	0	522	1	
9	0	0	0	0	502	1	
10	0	0	0	0	492	1	
11	0	0	0	0	508	2	
12	0	0	0	0	512	3	
13	0	0	0	0	522	1	
14	0	0	0	0	528	2	
15	0	0	0	0	531	2	
0	0	0	0	0	539	1	
1	0	0	0	0	545	2	
2	0	0	0	0	534	2	
3	0	0	0	0	515	2	
4	0	0	0	0	503	3	
5	0	0	0	0	497	1	
6	0	0	0	0	531	2	
7	0	0	0	0	648	2	
8	0	0	0	0	667	3	
9	0	0	0	0	584	2	
10	0	0	0	0	455	1	
11	0	0	0	0	371	1	
12	0	0	0	0	334	2	
13	0	0	0	0	367	0	
14	0	0	0	0	467	1	
15	0	0	0	0	543	1	
0	0	0	0	0	582	2	
1	0	0	0	0	591	2	
2	0	0	0	0	556	2	
3	0	0	0	0	540	2	
4	0	0	0	0	509	3	
5	0	0	0	0	469	1	
6	0	0	0	0	431	1	
7	0	0	0	0	492	0	
8	0	0	0	0	484	1	
9	0	0	0	0	465	1	
10	0	0	0	0	462	1	
11	0	0	0	0	462	1	
12	0	0	0	0	473	3	
13	0	0	0	0	503	1	
14	0	0	0	0	531	2	
15	0	0	0	0	543	2	
0	0	0	0	0	543	1	
1	0	0	0	0	557	2	
2	0	0	0	0	599	2	
3	0	0	0	0	564	2	
4	0	0	0	0	515	3	
5	0	0	0	0	471	1	
6	0	0	0	0	475	1	
7	0	0	0	0	491	1	
8	0	0	0	0	513	1	
9	0	0	0	0	552	2	
10	0	0	0	0	543	2	
11	0	0	0	0	535	2	
12	0	0	0	0	505	3	
13	0	0	0	0	496	1	
14	0	0	0	0	482	1	
15	0	0	0	0	488	1	
0	0	0	0	0	559	2	
1	0	0	0	0	548	2	
2	0	0	0	0	498	1	
3	0	0	0	0	437	1	
4	0	0	0	0	418	3	
5	0	0	0	0	441	1	
6	0	0	0	0	469	1	
7	0	0	0	0	508	1	
8	0	0	0	0	530	1	
9	0	0	0	0	535	2	
10	0	0	0	0	530	1	
11	0	0	0	0	524	2	
12	0	0	0	0	522	3	
13	0	0	0	0	518	1	
14	0	0	0	0	517	1	
15	0	0	0	0	543	2	
0	0	0	0	0	550	2	
1	0	0	0	0	559	2	
2	0	0	0	0	528	1	
3	0	0	0	0	497	1	
4	0	0	0	0	496	3	
5	0	0	0	0	510	1	
6	0	0	0	0	553	2	
7	0	0	0	0	552	2	
8	0	0	0	0	514	1	
9	0	0	0	0	455	1	
10	0	0	0	0	413	1	
11	0	0	0	0	447	1	
12	0	0	0	0	494	1	
13	0	0	0	0	519	2	
14	0	0	0	0	519	1	
15	0	0	0	0	505	1	
0	0	0	0	0	496	1	
1	0	0	0	0	495	1	
2	0	0	0	0	509	1	
3	0	0	0	0	516	1	
4	0	0	0	0	576	2	
5	0	0	0	0	567	2	
6	0	0	0	0	527	1	
7	0	0	0	0	482	1	
8	0	0	0	0	460	1	
9	0	0	0	0	465	1	
10	0	0	0	0	477	1	
11	0	0	0	0	503	1	
12	0	0	0	0	513	2	
13	0	0	0	0	523	1	
14	0	0	0	0	524	2	
15	0	0	0	0	524	2	
0	0	0	0	0	519	1	
1	0	0	0	0	515	1	
2	0	0	0	0	515	1	
3	0	0	0	0	513	2	
4	0	0	0	0	512	3	
5	0	0	0	0	521	2	
6	0	0	0	0	527	2	
7	0	0	0	0	562	2	
8	0	0	0	0	592	2	
9	0	0	0	0	550	2	
10	0	0	0	0	491	1	
11	0	0	0	0	448	1	
12	0	0	0	0	459	3	
13	0	0	0	0	460	1	
14	0	0	0	0	489	1	
15	0	0	0	0	515	1	
0	0	0	0	0	515	1	
1	0	0	0	0	497	1	
2	0	0	0	0	485	1	
3	0	0	0	0	497	1	
4	0	0	0	0	497	3	
5	0	0	0	0	494	1	
6	0	0	0	0	498	1	
7	0	0	0	0	499	1	
8	0	0	0	0	500	1	
9	0	0	0	0	527	2	
10	0	0	0	0	549	2	
11	0	0	0	0	536	2	
12	0	0	0	0	507	3	
13	0	0	0	0	485	1	
14	0	0	0	0	491	1	
15	0	0	0	0	499	1	
0	0	0	0	0	506	1	
1	0	0	0	0	517	1	
2	0	0	0	0	521	1	
3	0	0	0	0	515	2	
4	0	0	0	0	518	3	
5	0	0	0	0	516	2	
6	0	0	0	0	520	2	
7	0	0	0	0	575	2	
8	0	0	0	0	691	3	
9	0	0	0	0	655	3	
10	0	0	0	0	535	2	
11	0	0	0	0	393	1	
12	0	0	0	0	349	2	
13	0	0	0	0	385	1	
14	0	0	0	0	419	1	
15	0	0	0	0	467	0	
0	0	0	0	0	505	1	
1	0	0	0	0	556	2	
2	0	0	0	0	553	2	
3	0	0	0	0	536	2	
4	0	0	0	0	499	3	
5	0	0	0	0	476	1	
6	0	0	0	0	480	1	
7	0	0	0	0	513	1	
8	0	0	0	0	541	1	
9	0	0	0	0	543	2	
10	0	0	0	0	521	1	
11	0	0	0	0	490	1	
12	0	0	0	0	469	3	
13	0	0	0	0	467	1	
14	0	0	0	0	476	1	
15	0	0	0	0	496	1	
0	0	0	0	0	519	1	
1	0	0	0	0	531	2	
2	0	0	0	0	534	2	
3	0	0	0	0	534	2	
4	0	0	0	0	530	3	
5	0	0	0	0	530	1	
6	0	0	0	0	531	2	
7	0	0	0	0	528	2	
8	0	0	0	0	526	1	
9	0	0	0	0	545	2	
10	0	0	0	0	540	2	
11	0	0	0	0	570	2	
12	0	0	0	0	571	4	
13	0	0	0	0	502	1	
14	0	0	0	0	424	1	
15	0	0	0	0	394	1	
0	0	0	0	0	424	1	
1	0	0	0	0	459	1	
2	0	0	0	0	503	1	
3	0	0	0	0	521	2	
4	0	0	0	0	517	3	
5	0	0	0	0	516	1	
6	0	0	0	0	512	1	
7	0	0	0	0	516	1	
8	0	0	0	0	518	1	
9	0	0	0	0	519	1	
10	0	0	0	0	527	2	
11	0	0	0	0	558	2	
12	0	0	0	0	543	2	
13	0	0	0	0	512	1	
14	0	0	0	0	487	1	
15	0	0	0	0	487	1	
0	0	0	0	0	493	1	
1	0	0	0	0	504	1	
2	0	0	0	0	515	2	
3	0	0	0	0	517	1	
4	0	0	0	0	513	2	
5	0	0	0	0	511	1	
6	0	0	0	0	512	1	
7	0	0	0	0	514	1	
8	0	0	0	0	516	1	
9	0	0	0	0	511	1	
10	0	0	0	0	505	1	
11	0	0	0	0	507	2	
12	0	0	0	0	541	3	
13	0	0	0	0	569	2	
14	0	0	0	0	551	2	
15	0	0	0	0	595	2	
0	0	0	0	0	583	2	
1	0	0	0	0	530	2	
2	0	0	0	0	437	1	
3	0	0	0	0	373	1	
4	0	0	0	0	376	3	
5	0	0	0	0	400	0	
6	0	0	0	0	456	1	
7	0	0	0	0	493	1	
8	0	0	0	0	530	1	
9	0	0	0	0	541	2	
10	0	0	0	0	533	2	
11	0	0	0	0	522	2	
12	0	0	0	0	518	3	
13	0	0	0	0	526	1	
14	0	0	0	0	540	2	
15	0	0	0	0	576	2	
0	0	0	0	0	587	2	
1	0	0	0	0	535	2	
2	0	0	0	0	472	1	
3	0	0	0	0	435	1	
4	0	0	0	0	444	3	
5	0	0	0	0	474	1	
6	0	0	0	0	513	1	
7	0	0	0	0	558	1	
8	0	0	0	0	559	2	
9	0	0	0	0	571	2	
10	0	0	0	0	547	2	
11	0	0	0	0	501	1	
12	0	0	0	0	464	3	
13	0	0	0	0	441	1	
14	0	0	0	0	429	1	
15	0	0	0	0	463	0	
0	0	0	0	0	506	1	
1	0	0	0	0	546	2	
2	0	0	0	0	548	2	
3	0	0	0	0	529	2	
4	0	0	0	0	515	3	
5	0	0	0	0	512	1	
6	0	0	0	0	510	1	
7	0	0	0	0	526	2	
8	0	0	0	0	562	2	
9	0	0	0	0	545	2	
10	0	0	0	0	508	1	
11	0	0	0	0	475	1	
12	0	0	0	0	474	3	
13	0	0	0	0	472	1	
14	0	0	0	0	485	1	
15	0	0	0	0	508	1	
0	0	0	0	0	519	1	
1	0	0	0	0	529	2	
2	0	0	0	0	564	2	
3	0	0	0	0	590	2	
4	0	0	0	0	551	3	
5	0	0	0	0	488	1	
6	0	0	0	0	449	1	
7	0	0	0	0	451	1	
8	0	0	0	0	443	1	
9	0	0	0	0	471	1	
10	0	0	0	0	501	1	
11	0	0	0	0	534	2	
12	0	0	0	0	562	4	
13	0	0	0	0	618	3	
14	0	0	0	0	589	2	
15	0	0	0	0	518	1	
0	0	0	0	0	439	1	
1	0	0	0	0	401	1	
2	0	0	0	0	415	0	
3	0	0	0	0	454	1	
4	0	0	0	0	531	3	
5	0	0	0	0	573	2	
6	0	0	0	0	572	2	
7	0	0	0	0	529	2	
8	0	0	0	0	487	1	
9	0	0	0	0	473	1	
10	0	0	0	0	470	0	
11	0	0	0	0	481	1	
12	0	0	0	0	497	3	
13	0	0	0	0	521	2	
14	0	0	0	0	542	2	
15	0	0	0	0	567	2	
0	0	0	0	0	547	2	
1	0	0	0	0	514	1	
2	0	0	0	0	486	1	
3	0	0	0	0	484	1	
4	0	0	0	0	499	1	
5	0	0	0	0	511	1	
6	0	0	0	0	517	2	
7	0	0	0	0	518	1	
8	0	0	0	0	518	1	
9	0	0	0	0	517	1	
10	0	0	0	0	515	1	
11	0	0	0	0	515	1	
12	0	0	0	0	512	2	
13	0	0	0	0	518	1	
14	0	0	0	0	537	2	
15	0	0	0	0	529	2	
0	0	0	0	0	557	2	
1	0	0	0	0	544	2	
2	0	0	0	0	497	1	
3	0	0	0	0	453	1	
4	0	0	0	0	451	1	
5	0	0	0	0	488	1	
6	0	0	0	0	501	1	
7	0	0	0	0	510	1	
8	0	0	0	0	506	1	
9	0	0	0	0	510	1	
10	0	0	0	0	530	1	
11	0	0	0	0	513	2	
12	0	0	0	0	502	3	
13	0	0	0	0	514	1	
14	0	0	0	0	521	1	
15	0	0	0	0	595	2	
0	0	0	0	0	658	3	
1	0	0	0	0	596	2	
2	0	0	0	0	494	1	
3	0	0	0	0	385	1	
4	0	0	0	0	321	2	
5	0	0	0	0	331	0	
6	0	0	0	0	404	1	
7	0	0	0	0	472	1	
8	0	0	0	0	513	1	
9	0	0	0	0	540	2	
10	0	0	0	0	548	1	
11	0	0	0	0	542	2	
12	0	0	0	0	543	3	
13	0	0	0	0	537	2	
14	0	0	0	0	532	2	
15	0	0	0	0	531	2	
0	0	0	0	0	536	1	
1	0	0	0	0	557	2	
2	0	0	0	0	556	2	
3	0	0	0	0	529	2	
4	0	0	0	0	496	3	
5	0	0	0	0	495	1	
6	0	0	0	0	505	1	
7	0	0	0	0	504	1	
8	0	0	0	0	496	1	
9	0	0	0	0	507	1	
10	0	0	0	0	513	1	
11	0	0	0	0	523	2	
12	0	0	0	0	540	3	
13	0	0	0	0	524	2	
14	0	0	0	0	500	1	
15	0	0	0	0	530	2	
0	0	0	0	0	509	1	
1	0	0	0	0	471	1	
2	0	0	0	0	455	1	
3	0	0	0	0	464	1	
4	0	0	0	0	481	3	
5	0	0	0	0	507	1	
6	0	0	0	0	537	2	
7	0	0	0	0	557	1	
8	0	0	0	0	616	2	
9	0	0	0	0	607	2	
10	0	0	0	0	536	2	
11	0	0	0	0	440	1	
12	0	0	0	0	401	3	
13	0	0	0	0	411	1	
14	0	0	0	0	438	1	
15	0	0	0	0	487	0	
0	0	0	0	0	528	1	
1	0	0	0	0	543	2	
2	0	0	0	0	536	2	
3	0	0	0	0	521	2	
4	0	0	0	0	511	3	
5	0	0	0	0	504	1	
6	0	0	0	0	515	2	
7	0	0	0	0	526	1	
8	0	0	0	0	523	1	
9	0	0	0	0	511	1	
10	0	0	0	0	521	2	
11	0	0	0	0	519	2	
12	0	0	0	0	513	3	
13	0	0	0	0	515	1	
14	0	0	0	0	505	1	
15	0	0	0	0	502	1	
0	0	0	0	0	497	1	
1	0	0	0	0	495	1	
2	0	0	0	0	504	1	
3	0	0	0	0	534	2	
4	0	0	0	0	560	4	
5	0	0	0	0	550	1	
6	0	0	0	0	539	2	
7	0	0	0	0	506	1	
8	0	0	0	0	476	1	
9	0	0	0	0	462	1	
10	0	0	0	0	461	1	
11	0	0	0	0	484	1	
12	0	0	0	0	501	3	
13	0	0	0	0	527	1	
14	0	0	0	0	565	2	
15	0	0	0	0	582	2	
0	0	0	0	0	559	2	
1	0	0	0	0	504	1	
2	0	0	0	0	446	1	
3	0	0	0	0	437	1	
4	0	0	0	0	467	2	
5	0	0	0	0	547	2	
6	0	0	0	0	568	2	
7	0	0	0	0	547	2	
8	0	0	0	0	526	1	
9	0	0	0	0	481	1	
10	0	0	0	0	446	1	
11	0	0	0	0	416	1	
12	0	0	0	0	445	2	
13	0	0	0	0	476	1	
14	0	0	0	0	498	1	
15	0	0	0	0	515	1	
0	0	0	0	0	531	1	
1	0	0	0	0	534	2	
2	0	0	0	0	529	2	
3	0	0	0	0	555	2	
4	0	0	0	0	575	3	
5	0	0	0	0	565	2	
6	0	0	0	0	531	2	
7	0	0	0	0	495	1	
8	0	0	0	0	471	1	
9	0	0	0	0	462	1	
10	0	0	0	0	474	1	
11	0	0	0	0	497	1	
12	0	0	0	0	532	3	
13	0	0	0	0	548	1	
14	0	0	0	0	538	2	
15	0	0	0	0	512	1	
0	0	0	0	0	488	1	
1	0	0	0	0	489	1	
2	0	0	0	0	492	1	
3	0	0	0	0	504	1	
4	0	0	0	0	513	3	
5	0	0	0	0	525	1	
6	0	0	0	0	527	2	
7	0	0	0	0	525	2	
8	0	0	0	0	519	1	
9	0	0	0	0	506	1	
10	0	0	0	0	499	1	
11	0	0	0	0	498	1	
12	0	0	0	0	505	3	
13	0	0	0	0	534	2	
14	0	0	0	0	556	2	
15	0	0	0	0	532	1	
0	0	0	0	0	502	1	
1	0	0	0	0	480	1	
2	0	0	0	0	476	1	
3	0	0	0	0	484	1	
4	0	0	0	0	490	3	
5	0	0	0	0	504	1	
6	0	0	0	0	509	1	
7	0	0	0	0	508	1	
8	0	0	0	0	528	1	
9	0	0	0	0	540	2	
10	0	0	0	0	540	2	
11	0	0	0	0	566	2	
12	0	0	0	0	553	4	
13	0	0	0	0	559	2	
14	0	0	0	0	518	1	
15	0	0	0	0	484	1	
0	0	0	0	0	463	1	
1	0	0	0	0	440	1	
2	0	0	0	0	473	1	
3	0	0	0	0	472	1	
4	0	0	0	0	470	3	
5	0	0	0	0	456	1	
6	0	0	0	0	454	1	
7	0	0	0	0	484	1	
8	0	0	0	0	548	1	
9	0	0	0	0	587	2	
10	0	0	0	0	569	2	
11	0	0	0	0	519	2	
12	0	0	0	0	476	3	
13	0	0	0	0	457	1	
14	0	0	0	0	460	1	
15	0	0	0	0	489	1	
0	0	0	0	0	514	1	
1	0	0	0	0	530	2	
2	0	0	0	0	534	2	
3	0	0	0	0	530	2	
4	0	0	0	0	532	3	
5	0	0	0	0	533	2	
6	0	0	0	0	524	2	
7	0	0	0	0	519	1	
8	0	0	0	0	515	1	
9	0	0	0	0	509	1	
10	0	0	0	0	508	1	
11	0	0	0	0	509	1	
12	0	0	0	0	516	3	
13	0	0	0	0	517	1	
14	0	0	0	0	517	1	
15	0	0	0	0	513	1	
0	0	0	0	0	510	1	
1	0	0	0	0	505	1	
2	0	0	0	0	507	1	
3	0	0	0	0	506	2	
4	0	0	0	0	504	3	
5	0	0	0	0	502	1	
6	0	0	0	0	504	1	
7	0	0	0	0	506	1	
8	0	0	0	0	510	1	
9	0	0	0	0	524	1	
10	0	0	0	0	524	1	
11	0	0	0	0	515	2	
12	0	0	0	0	503	3	
13	0	0	0	0	514	1	
14	0	0	0	0	523	1	
15	0	0	0	0	518	1	
0	0	0	0	0	515	1	
1	0	0	0	0	510	1	
2	0	0	0	0	518	1	
3	0	0	0	0	520	1	
4	0	0	0	0	517	2	
5	0	0	0	0	509	1	
6	0	0	0	0	508	1	
7	0	0	0	0	542	2	
8	0	0	0	0	519	1	
9	0	0	0	0	501	1	
10	0	0	0	0	489	1	
11	0	0	0	0	464	1	
12	0	0	0	0	446	1	
13	0	0	0	0	426	1	
14	0	0	0	0	474	1	
15	0	0	0	0	524	2	
0	0	0	0	0	550	2	
1	0	0	0	0	581	2	
2	0	0	0	0	564	1	
3	0	0	0	0	520	2	
4	0	0	0	0	476	3	
5	0	0	0	0	464	1	
6	0	0	0	0	467	1	
7	0	0	0	0	489	1	
8	0	0	0	0	529	1	
9	0	0	0	0	550	2	
10	0	0	0	0	545	1	
11	0	0	0	0	524	2	
12	0	0	0	0	496	3	
13	0	0	0	0	484	1	
14	0	0	0	0	474	1	
15	0	0	0	0	484	1	
0	0	0	0	0	512	1	
1	0	0	0	0	520	1	
2	0	0	0	0	529	1	
3	0	0	0	0	524	2	
4	0	0	0	0	511	3	
5	0	0	0	0	508	1	
6	0	0	0	0	509	1	
7	0	0	0	0	519	2	
8	0	0	0	0	521	1	
9	0	0	0	0	518	1	
10	0	0	0	0	527	2	
11	0	0	0	0	537	2	
12	0	0	0	0	527	3	
13	0	0	0	0	505	1	
14	0	0	0	0	486	1	
15	0	0	0	0	485	1	
0	0	0	0	0	487	1	
1	0	0	0	0	496	1	
2	0	0	0	0	523	2	
3	0	0	0	0	529	2	
4	0	0	0	0	524	3	
5	0	0	0	0	520	1	
6	0	0	0	0	535	2	
7	0	0	0	0	605	2	
8	0	0	0	0	620	2	
9	0	0	0	0	547	2	
10	0	0	0	0	427	1	
11	0	0	0	0	342	0	
12	0	0	0	0	373	3	
13	0	0	0	0	419	1	
14	0	0	0	0	473	1	
15	0	0	0	0	519	1	
0	0	0	0	0	535	1	
1	0	0	0	0	536	2	
2	0	0	0	0	534	2	
3	0	0	0	0	531	2	
4	0	0	0	0	532	3	
5	0	0	0	0	575	2	
6	0	0	0	0	621	3	
7	0	0	0	0	605	1	
8	0	0	0	0	620	2	
9	0	0	0	0	571	2	
10	0	0	0	0	467	1	
11	0	0	0	0	380	1	
12	0	0	0	0	345	2	
13	0	0	0	0	355	0	
14	0	0	0	0	397	1	
15	0	0	0	0	462	0	
0	0	0	0	0	515	1	
1	0	0	0	0	538	2	
2	0	0	0	0	548	2	
3	0	0	0	0	555	2	
4	0	0	0	0	573	4	
5	0	0	0	0	577	2	
6	0	0	0	0	575	2	
7	0	0	0	0	550	2	
8	0	0	0	0	543	1	
9	0	0	0	0	534	2	
10	0	0	0	0	472	1	
11	0	0	0	0	444	1	
12	0	0	0	0	439	3	
13	0	0	0	0	495	1	
14	0	0	0	0	531	2	
15	0	0	0	0	518	1	
0	0	0	0	0	493	1	
1	0	0	0	0	510	1	
2	0	0	0	0	524	2	
3	0	0	0	0	520	2	
4	0	0	0	0	501	3	
5	0	0	0	0	481	1	
6	0	0	0	0	473	1	
7	0	0	0	0	483	1	
8	0	0	0	0	512	1	
9	0	0	0	0	539	2	
10	0	0	0	0	541	2	
11	0	0	0	0	531	2	
12	0	0	0	0	517	2	
13	0	0	0	0	523	1	
14	0	0	0	0	548	2	
15	0	0	0	0	580	2	
0	0	0	0	0	555	2	
1	0	0	0	0	500	1	
2	0	0	0	0	455	1	
3	0	0	0	0	440	1	
4	0	0	0	0	471	2	
5	0	0	0	0	510	1	
6	0	0	0	0	527	2	
7	0	0	0	0	518	1	
8	0	0	0	0	498	1	
9	0	0	0	0	487	1	
10	0	0	0	0	483	1	
11	0	0	0	0	499	1	
12	0	0	0	0	521	2	
13	0	0	0	0	532	2	
14	0	0	0	0	531	2	
15	0	0	0	0	542	2	
0	0	0	0	0	549	2	
1	0	0	0	0	531	2	
2	0	0	0	0	507	1	
3	0	0	0	0	487	1	
4	0	0	0	0	486	3	
5	0	0	0	0	487	1	
6	0	0	0	0	475	1	
7	0	0	0	0	485	1	
8	0	0	0	0	496	1	
9	0	0	0	0	500	1	
10	0	0	0	0	522	2	
11	0	0	0	0	568	2	
12	0	0	0	0	562	4	
13	0	0	0	0	558	1	
14	0	0	0	0	577	2	
15	0	0	0	0	544	2	
0	0	0	0	0	522	1	
1	0	0	0	0	444	1	
2	0	0	0	0	403	1	
3	0	0	0	0	387	1	
4	0	0	0	0	425	3	
5	0	0	0	0	494	1	
6	0	0	0	0	513	1	
7	0	0	0	0	529	1	
8	0	0	0	0	526	1	
9	0	0	0	0	523	1	
10	0	0	0	0	536	2	
11	0	0	0	0	545	2	
12	0	0	0	0	548	3	
13	0	0	0	0	533	2	
14	0	0	0	0	552	2	
15	0	0	0	0	530	1	
0	0	0	0	0	499	1	
1	0	0	0	0	474	1	
2	0	0	0	0	466	1	
3	0	0	0	0	464	1	
4	0	0	0	0	491	3	
5	0	0	0	0	519	2	
6	0	0	0	0	532	2	
7	0	0	0	0	541	1	
8	0	0	0	0	584	2	
9	0	0	0	0	591	2	
10	0	0	0	0	564	2	
11	0	0	0	0	558	2	
12	0	0	0	0	551	4	
13	0	0	0	0	552	2	
14	0	0	0	0	462	1	
15	0	0	0	0	370	1	
0	0	0	0	0	354	0	
1	0	0	0	0	390	1	
2	0	0	0	0	439	1	
3	0	0	0	0	463	1	
4	0	0	0	0	496	3	
5	0	0	0	0	513	1	
6	0	0	0	0	522	2	
7	0	0	0	0	566	2	
8	0	0	0	0	593	2	
9	0	0	0	0	567	2	
10	0	0	0	0	527	2	
11	0	0	0	0	501	1	
12	0	0	0	0	512	3	
13	0	0	0	0	541	2	
14	0	0	0	0	539	2	
15	0	0	0	0	513	1	
0	0	0	0	0	491	1	
1	0	0	0	0	479	1	
2	0	0	0	0	493	1	
3	0	0	0	0	536	2	
4	0	0	0	0	542	3	
5	0	0	0	0	525	2	
6	0	0	0	0	498	1	
7	0	0	0	0	477	1	
8	0	0	0	0	483	1	
9	0	0	0	0	504	1	
10	0	0	0	0	513	1	
11	0	0	0	0	518	2	
12	0	0	0	0	523	3	
13	0	0	0	0	524	2	
14	0	0	0	0	521	2	
15	0	0	0	0	508	1	
0	0	0	0	0	520	1	
1	0	0	0	0	524	2	
2	0	0	0	0	515	1	
3	0	0	0	0	504	2	
4	0	0	0	0	499	3	
5	0	0	0	0	493	1	
6	0	0	0	0	484	1	
7	0	0	0	0	495	1	
8	0	0	0	0	508	1	
9	0	0	0	0	513	1	
10	0	0	0	0	513	1	
11	0	0	0	0	515	1	
12	0	0	0	0	528	2	
13	0	0	0	0	538	2	
14	0	0	0	0	534	2	
15	0	0	0	0	529	2	
0	0	0	0	0	590	2	
1	0	0	0	0	619	3	
2	0	0	0	0	551	2	
3	0	0	0	0	440	1	
4	0	0	0	0	352	0	
5	0	0	0	0	359	0	
6	0	0	0	0	491	1	
7	0	0	0	0	579	2	
8	0	0	0	0	570	2	
9	0	0	0	0	489	1	
10	0	0	0	0	431	1	
11	0	0	0	0	423	1	
12	0	0	0	0	428	1	
13	0	0	0	0	477	1	
14	0	0	0	0	518	1	
15	0	0	0	0	535	2	
0	0	0	0	0	546	2	
1	0	0	0	0	562	2	
2	0	0	0	0	560	1	
3	0	0	0	0	557	2	
4	0	0	0	0	549	3	
5	0	0	0	0	534	2	
6	0	0	0	0	510	1	
7	0	0	0	0	499	1	
8	0	0	0	0	499	1	
9	0	0	0	0	494	1	
10	0	0	0	0	499	1	
11	0	0	0	0	512	2	
12	0	0	0	0	513	3	
13	0	0	0	0	506	1	
14	0	0	0	0	515	1	
15	0	0	0	0	512	1	
0	0	0	0	0	508	1	
1	0	0	0	0	505	1	
2	0	0	0	0	516	1	
3	0	0	0	0	537	2	
4	0	0	0	0	537	3	
5	0	0	0	0	524	1	
6	0	0	0	0	503	1	
7	0	0	0	0	481	1	
8	0	0	0	0	477	1	
9	0	0	0	0	491	1	
10	0	0	0	0	508	1	
11	0	0	0	0	519	2	
12	0	0	0	0	519	3	
13	0	0	0	0	527	2	
14	0	0	0	0	535	2	
15	0	0	0	0	536	2	
0	0	0	0	0	512	1	
1	0	0	0	0	480	1	
2	0	0	0	0	550	2	
3	0	0	0	0	579	2	
4	0	0	0	0	540	3	
5	0	0	0	0	453	1	
6	0	0	0	0	402	1	
7	0	0	0	0	414	1	
8	0	0	0	0	433	1	
9	0	0	0	0	478	1	
10	0	0	0	0	531	2	
11	0	0	0	0	604	3	
12	0	0	0	0	667	5	
13	0	0	0	0	615	3	
14	0	0	0	0	495	1	
15	0	0	0	0	394	0	
0	0	0	0	0	379	0	
1	0	0	0	0	399	1	
2	0	0	0	0	447	1	
3	0	0	0	0	503	1	
4	0	0	0	0	536	3	
5	0	0	0	0	542	2	
6	0	0	0	0	548	2	
7	0	0	0	0	556	1	
8	0	0	0	0	569	2	
9	0	0	0	0	559	2	
10	0	0	0	0	534	2	
11	0	0	0	0	505	2	
12	0	0	0	0	483	3	
13	0	0	0	0	470	1	
14	0	0	0	0	495	1	
15	0	0	0	0	549	2	
0	0	0	0	0	553	2	
1	0	0	0	0	538	2	
2	0	0	0	0	510	1	
3	0	0	0	0	475	1	
4	0	0	0	0	463	3	
5	0	0	0	0	482	1	
6	0	0	0	0	503	1	
7	0	0	0	0	503	1	
8	0	0	0	0	506	1	
9	0	0	0	0	541	2	
10	0	0	0	0	604	2	
11	0	0	0	0	582	2	
12	0	0	0	0	517	3	
13	0	0	0	0	448	1	
14	0	0	0	0	427	1	
15	0	0	0	0	430	1	
0	0	0	0	0	449	1	
1	0	0	0	0	509	1	
2	0	0	0	0	545	2	
3	0	0	0	0	540	2	
4	0	0	0	0	526	2	
5	0	0	0	0	508	1	
6	0	0	0	0	491	1	
7	0	0	0	0	489	1	
8	0	0	0	0	506	1	
9	0	0	0	0	523	2	
10	0	0	0	0	588	2	
11	0	0	0	0	591	2	
12	0	0	0	0	560	3	
13	0	0	0	0	519	1	
14	0	0	0	0	493	1	
15	0	0	0	0	491	1	
0	0	0	0	0	441	1	
1	0	0	0	0	428	1	
2	0	0	0	0	452	1	
3	0	0	0	0	522	2	
4	0	0	0	0	543	3	
5	0	0	0	0	508	1	
6	0	0	0	0	494	1	
7	0	0	0	0	509	1	
8	0	0	0	0	522	1	
9	0	0	0	0	541	2	
10	0	0	0	0	548	2	
11	0	0	0	0	519	2	
12	0	0	0	0	494	3	
13	0	0	0	0	503	1	
14	0	0	0	0	517	1	
15	0	0	0	0	521	2	
0	0	0	0	0	508	1	
1	0	0	0	0	490	1	
2	0	0	0	0	487	1	
3	0	0	0	0	521	2	
4	0	0	0	0	625	4	
5	0	0	0	0	614	2	
6	0	0	0	0	525	1	
7	0	0	0	0	428	1	
8	0	0	0	0	412	1	
9	0	0	0	0	412	1	
10	0	0	0	0	425	1	
11	0	0	0	0	473	1	
12	0	0	0	0	511	3	
13	0	0	0	0	527	1	
14	0	0	0	0	534	2	
15	0	0	0	0	543	2	
0	0	0	0	0	578	2	
1	0	0	0	0	605	2	
2	0	0	0	0	576	2	
3	0	0	0	0	524	2	
4	0	0	0	0	507	3	
5	0	0	0	0	466	1	
6	0	0	0	0	436	1	
7	0	0	0	0	430	0	
8	0	0	0	0	463	1	
9	0	0	0	0	492	1	
10	0	0	0	0	509	1	
11	0	0	0	0	523	2	
12	0	0	0	0	524	3	
13	0	0	0	0	539	2	
14	0	0	0	0	597	2	
15	0	0	0	0	596	1	
0	0	0	0	0	546	1	
1	0	0	0	0	485	1	
2	0	0	0	0	451	1	
3	0	0	0	0	443	1	
4	0	0	0	0	449	3	
5	0	0	0	0	497	1	
6	0	0	0	0	513	1	
7	0	0	0	0	514	1	
8	0	0	0	0	526	1	
9	0	0	0	0	518	1	
10	0	0	0	0	508	1	
11	0	0	0	0	501	1	
12	0	0	0	0	508	3	
13	0	0	0	0	532	2	
14	0	0	0	0	531	2	
15	0	0	0	0	518	1	
0	0	0	0	0	518	1	
1	0	0	0	0	571	2	
2	0	0	0	0	610	2	
3	0	0	0	0	592	2	
4	0	0	0	0	495	3	
5	0	0	0	0	417	1	
6	0	0	0	0	385	1	
7	0	0	0	0	379	1	
8	0	0	0	0	415	0	
9	0	0	0	0	465	1	
10	0	0	0	0	510	1	
11	0	0	0	0	535	2	
12	0	0	0	0	555	4	
13	0	0	0	0	579	2	
14	0	0	0	0	561	2	
15	0	0	0	0	532	2	
0	0	0	0	0	528	1	
1	0	0	0	0	577	2	
2	0	0	0	0	563	1	
3	0	0	0	0	523	2	
4	0	0	0	0	483	3	
5	0	0	0	0	441	1	
6	0	0	0	0	426	1	
7	0	0	0	0	433	1	
8	0	0	0	0	483	1	
9	0	0	0	0	508	1	
10	0	0	0	0	532	1	
11	0	0	0	0	544	2	
12	0	0	0	0	538	3	
13	0	0	0	0	526	1	
14	0	0	0	0	518	1	
15	0	0	0	0	527	2	
0	0	0	0	0	554	2	
1	0	0	0	0	588	2	
2	0	0	0	0	568	2	
3	0	0	0	0	500	1	
4	0	0	0	0	436	1	
5	0	0	0	0	419	1	
6	0	0	0	0	432	1	
7	0	0	0	0	462	1	
8	0	0	0	0	505	1	
9	0	0	0	0	527	2	
10	0	0	0	0	537	2	
11	0	0	0	0	550	2	
12	0	0	0	0	581	2	
13	0	0	0	0	569	2	
14	0	0	0	0	533	2	
15	0	0	0	0	558	2	
0	0	0	0	0	557	2	
1	0	0	0	0	496	1	
2	0	0	0	0	432	1	
3	0	0	0	0	402	1	
4	0	0	0	0	414	1	
5	0	0	0	0	459	1	
6	0	0	0	0	494	1	
7	0	0	0	0	535	2	
8	0	0	0	0	536	1	
9	0	0	0	0	511	1	
10	0	0	0	0	499	1	
11	0	0	0	0	502	1	
12	0	0	0	0	518	3	
13	0	0	0	0	525	2	
14	0	0	0	0	529	2	
15	0	0	0	0	526	1	
0	0	0	0	0	525	1	
1	0	0	0	0	527	1	
2	0	0	0	0	527	1	
3	0	0	0	0	519	2	
4	0	0	0	0	515	3	
5	0	0	0	0	550	2	
6	0	0	0	0	558	2	
7	0	0	0	0	530	2	
8	0	0	0	0	480	1	
9	0	0	0	0	460	1	
10	0	0	0	0	454	0	
11	0	0	0	0	454	1	
12	0	0	0	0	487	3	
13	0	0	0	0	519	1	
14	0	0	0	0	542	2	
15	0	0	0	0	579	2	
0	0	0	0	0	573	2	
1	0	0	0	0	541	2	
2	0	0	0	0	494	1	
3	0	0	0	0	464	1	
4	0	0	0	0	451	3	
5	0	0	0	0	469	1	
6	0	0	0	0	483	1	
7	0	0	0	0	492	1	
8	0	0	0	0	500	1	
9	0	0	0	0	511	1	
10	0	0	0	0	524	2	
11	0	0	0	0	535	2	
12	0	0	0	0	535	3	
13	0	0	0	0	560	2	
14	0	0	0	0	566	2	
15	0	0	0	0	532	2	
0	0	0	0	0	510	1	
1	0	0	0	0	540	2	
2	0	0	0	0	571	2	
3	0	0	0	0	527	2	
4	0	0	0	0	447	3	
5	0	0	0	0	391	1	
6	0	0	0	0	396	1	
7	0	0	0	0	432	0	
8	0	0	0	0	476	1	
9	0	0	0	0	500	1	
10	0	0	0	0	540	2	
11	0	0	0	0	556	2	
12	0	0	0	0	561	4	
13	0	0	0	0	584	2	
14	0	0	0	0	553	2	
15	0	0	0	0	500	1	
0	0	0	0	0	450	1	
1	0	0	0	0	457	1	
2	0	0	0	0	481	1	
3	0	0	0	0	495	1	
4	0	0	0	0	523	3	
5	0	0	0	0	537	2	
6	0	0	0	0	537	2	
7	0	0	0	0	537	1	
8	0	0	0	0	522	1	
9	0	0	0	0	508	1	
10	0	0	0	0	508	1	
11	0	0	0	0	503	1	
12	0	0	0	0	503	3	
13	0	0	0	0	508	1	
14	0	0	0	0	512	1	
15	0	0	0	0	518	1	
0	0	0	0	0	523	1	
1	0	0	0	0	550	2	
2	0	0	0	0	564	2	
3	0	0	0	0	564	2	
4	0	0	0	0	529	3	
5	0	0	0	0	482	1	
6	0	0	0	0	452	1	
7	0	0	0	0	440	1	
8	0	0	0	0	466	1	
9	0	0	0	0	494	1	
10	0	0	0	0	499	1	
11	0	0	0	0	499	1	
12	0	0	0	0	521	3	
13	0	0	0	0	557	2	
14	0	0	0	0	584	2	
15	0	0	0	0	611	2	
0	0	0	0	0	545	1	
1	0	0	0	0	447	1	
2	0	0	0	0	408	1	
3	0	0	0	0	438	1	
4	0	0	0	0	469	2	
5	0	0	0	0	467	1	
6	0	0	0	0	473	1	
7	0	0	0	0	483	1	
8	0	0	0	0	504	1	
9	0	0	0	0	532	2	
10	0	0	0	0	551	2	
11	0	0	0	0	542	2	
12	0	0	0	0	527	2	
13	0	0	0	0	526	2	
14	0	0	0	0	532	2	
15	0	0	0	0	524	1	
0	0	0	0	0	534	1	
1	0	0	0	0	552	2	
2	0	0	0	0	543	2	
3	0	0	0	0	515	2	
4	0	0	0	0	483	2	
5	0	0	0	0	468	1	
6	0	0	0	0	513	1	
7	0	0	0	0	535	2	
8	0	0	0	0	535	1	
9	0	0	0	0	494	1	
10	0	0	0	0	455	1	
11	0	0	0	0	448	1	
12	0	0	0	0	474	3	
13	0	0	0	0	501	1	
14	0	0	0	0	521	1	
15	0	0	0	0	529	1	
0	0	0	0	0	526	1	
1	0	0	0	0	521	1	
2	0	0	0	0	516	1	
3	0	0	0	0	525	2	
4	0	0	0	0	533	3	
5	0	0	0	0	532	1	
6	0	0	0	0	526	2	
7	0	0	0	0	510	1	
8	0	0	0	0	496	1	
9	0	0	0	0	491	1	
10	0	0	0	0	515	1	
11	0	0	0	0	525	2	
12	0	0	0	0	524	3	
13	0	0	0	0	508	1	
14	0	0	0	0	495	1	
15	0	0	0	0	498	1	
0	0	0	0	0	535	1	
1	0	0	0	0	604	2	
2	0	0	0	0	553	2	
3	0	0	0	0	473	1	
4	0	0	0	0	411	3	
5	0	0	0	0	397	1	
6	0	0	0	0	400	1	
7	0	0	0	0	472	0	
8	0	0	0	0	554	2	
9	0	0	0	0	585	2	
10	0	0	0	0	556	2	
11	0	0	0	0	500	1	
12	0	0	0	0	472	3	
13	0	0	0	0	470	1	
14	0	0	0	0	500	1	
15	0	0	0	0	523	1	
0	0	0	0	0	524	1	
1	0	0	0	0	525	1	
2	0	0	0	0	514	1	
3	0	0	0	0	516	2	
4	0	0	0	0	573	4	
5	0	0	0	0	569	2	
6	0	0	0	0	529	2	
7	0	0	0	0	473	1	
8	0	0	0	0	467	1	
9	0	0	0	0	475	1	
10	0	0	0	0	480	1	
11	0	0	0	0	505	1	
12	0	0	0	0	516	3	
13	0	0	0	0	535	2	
14	0	0	0	0	545	2	
15	0	0	0	0	539	2	
0	0	0	0	0	515	1	
1	0	0	0	0	492	1	
2	0	0	0	0	497	1	
3	0	0	0	0	492	1	
4	0	0	0	0	492	3	
5	0	0	0	0	498	1	
6	0	0	0	0	512	1	
7	0	0	0	0	525	2	
8	0	0	0	0	521	1	
9	0	0	0	0	516	1	
10	0	0	0	0	512	1	
11	0	0	0	0	507	2	
12	0	0	0	0	504	3	
13	0	0	0	0	515	1	
14	0	0	0	0	537	2	
15	0	0	0	0	535	2	
0	0	0	0	0	516	1	
1	0	0	0	0	492	1	
2	0	0	0	0	471	1	
3	0	0	0	0	521	2	
4	0	0	0	0	623	4	
5	0	0	0	0	656	3	
6	0	0	0	0	608	2	
7	0	0	0	0	483	1	
8	0	0	0	0	382	0	
9	0	0	0	0	333	0	
10	0	0	0	0	364	0	
11	0	0	0	0	432	1	
12	0	0	0	0	551	2	
13	0	0	0	0	596	2	
14	0	0	0	0	531	2	
15	0	0	0	0	468	1	
0	0	0	0	0	430	1	
1	0	0	0	0	448	1	
2	0	0	0	0	475	1	
3	0	0	0	0	496	1	
4	0	0	0	0	523	2	
5	0	0	0	0	530	2	
6	0	0	0	0	529	2	
7	0	0	0	0	542	2	
8	0	0	0	0	545	2	
9	0	0	0	0	536	2	
10	0	0	0	0	526	2	
11	0	0	0	0	519	1	
12	0	0	0	0	516	2	
13	0	0	0	0	519	1	
14	0	0	0	0	519	1	
15	0	0	0	0	520	1	
0	0	0	0	0	520	1	
1	0	0	0	0	519	1	
2	0	0	0	0	523	1	
3	0	0	0	0	535	2	
4	0	0	0	0	537	3	
5	0	0	0	0	524	2	
6	0	0	0	0	510	1	
7	0	0	0	0	495	1	
8	0	0	0	0	482	1	
9	0	0	0	0	479	1	
10	0	0	0	0	495	1	
11	0	0	0	0	507	1	
12	0	0	0	0	519	3	
13	0	0	0	0	523	1	
14	0	0	0	0	517	1	
15	0	0	0	0	508	1	
0	0	0	0	0	492	1	
1	0	0	0	0	490	1	
2	0	0	0	0	529	1	
3	0	0	0	0	601	3	
4	0	0	0	0	582	4	
5	0	0	0	0	520	1	
6	0	0	0	0	462	1	
7	0	0	0	0	462	1	
8	0	0	0	0	499	1	
9	0	0	0	0	513	1	
10	0	0	0	0	512	1	
11	0	0	0	0	489	1	
12	0	0	0	0	449	3	
13	0	0	0	0	444	1	
14	0	0	0	0	468	1	
15	0	0	0	0	491	1	
0	0	0	0	0	510	1	
1	0	0	0	0	512	1	
2	0	0	0	0	536	2	
3	0	0	0	0	572	2	
4	0	0	0	0	559	4	
5	0	0	0	0	611	3	
6	0	0	0	0	598	2	
7	0	0	0	0	543	2	
8	0	0	0	0	443	1	
9	0	0	0	0	388	1	
10	0	0	0	0	411	1	
11	0	0	0	0	427	1	
12	0	0	0	0	465	3	
13	0	0	0	0	538	2	
14	0	0	0	0	592	2	
15	0	0	0	0	576	1	
0	0	0	0	0	540	1	
1	0	0	0	0	493	1	
2	0	0	0	0	463	1	
3	0	0	0	0	444	1	
4	0	0	0	0	456	3	
5	0	0	0	0	513	1	
6	0	0	0	0	534	2	
7	0	0	0	0	536	1	
8	0	0	0	0	527	1	
9	0	0	0	0	535	2	
10	0	0	0	0	555	2	
11	0	0	0	0	616	3	
12	0	0	0	0	583	4	
13	0	0	0	0	497	1	
14	0	0	0	0	416	1	
15	0	0	0	0	391	0	
0	0	0	0	0	452	1	
1	0	0	0	0	504	1	
2	0	0	0	0	543	2	
3	0	0	0	0	544	2	
4	0	0	0	0	556	4	
5	0	0	0	0	540	1	
6	0	0	0	0	504	1	
7	0	0	0	0	484	1	
8	0	0	0	0	460	1	
9	0	0	0	0	463	1	
10	0	0	0	0	489	1	
11	0	0	0	0	504	2	
12	0	0	0	0	524	3	
13	0	0	0	0	572	2	
14	0	0	0	0	560	2	
15	0	0	0	0	571	2	
0	0	0	0	0	546	2	
1	0	0	0	0	506	1	
2	0	0	0	0	453	1	
3	0	0	0	0	428	1	
4	0	0	0	0	447	3	
5	0	0	0	0	501	1	
6	0	0	0	0	551	2	
7	0	0	0	0	543	2	
8	0	0	0	0	504	1	
9	0	0	0	0	471	1	
10	0	0	0	0	475	1	
11	0	0	0	0	500	1	
12	0	0	0	0	525	2	
13	0	0	0	0	528	2	
14	0	0	0	0	524	1	
15	0	0	0	0	504	1	
0	0	0	0	0	502	1	
1	0	0	0	0	506	1	
2	0	0	0	0	532	2	
3	0	0	0	0	549	2	
4	0	0	0	0	543	3	
5	0	0	0	0	515	1	
6	0	0	0	0	507	1	
7	0	0	0	0	521	2	
8	0	0	0	0	517	1	
9	0	0	0	0	539	2	
10	0	0	0	0	510	1	
11	0	0	0	0	474	1	
12	0	0	0	0	451	2	
13	0	0	0	0	481	1	
14	0	0	0	0	518	1	
15	0	0	0	0	516	1	
0	0	0	0	0	503	1	
1	0	0	0	0	495	1	
2	0	0	0	0	494	1	
3	0	0	0	0	502	2	
4	0	0	0	0	526	3	
5	0	0	0	0	552	1	
6	0	0	0	0	551	2	
7	0	0	0	0	534	2	
8	0	0	0	0	512	1	
9	0	0	0	0	495	1	
10	0	0	0	0	493	1	
11	0	0	0	0	480	1	
12	0	0	0	0	469	3	
13	0	0	0	0	472	1	
14	0	0	0	0	492	1	
15	0	0	0	0	506	1	
0	0	0	0	0	533	1	
1	0	0	0	0	547	2	
2	0	0	0	0	540	2	
3	0	0	0	0	556	2	
4	0	0	0	0	520	3	
5	0	0	0	0	491	1	
6	0	0	0	0	464	1	
7	0	0	0	0	514	1	
8	0	0	0	0	543	2	
9	0	0	0	0	526	1	
10	0	0	0	0	497	1	
11	0	0	0	0	486	1	
12	0	0	0	0	475	3	
13	0	0	0	0	468	1	
14	0	0	0	0	489	1	
15	0	0	0	0	537	1	
0	0	0	0	0	548	2	
1	0	0	0	0	537	2	
2	0	0	0	0	507	1	
3	0	0	0	0	464	1	
4	0	0	0	0	461	3	
5	0	0	0	0	519	2	
6	0	0	0	0	603	2	
7	0	0	0	0	633	2	
8	0	0	0	0	547	1	
9	0	0	0	0	457	1	
10	0	0	0	0	399	1	
11	0	0	0	0	435	1	
12	0	0	0	0	534	3	
13	0	0	0	0	577	2	
14	0	0	0	0	551	2	
15	0	0	0	0	494	1	
0	0	0	0	0	439	1	
1	0	0	0	0	426	1	
2	0	0	0	0	462	1	
3	0	0	0	0	478	1	
4	0	0	0	0	490	3	
5	0	0	0	0	507	1	
6	0	0	0	0	522	2	
7	0	0	0	0	530	2	
8	0	0	0	0	535	1	
9	0	0	0	0	564	2	
10	0	0	0	0	569	2	
11	0	0	0	0	575	2	
12	0	0	0	0	543	3	
13	0	0	0	0	500	1	
14	0	0	0	0	481	1	
15	0	0	0	0	491	1	
0	0	0	0	0	545	1	
1	0	0	0	0	531	1	
2	0	0	0	0	496	1	
3	0	0	0	0	475	1	
4	0	0	0	0	467	3	
5	0	0	0	0	477	1	
6	0	0	0	0	496	1	
7	0	0	0	0	505	1	
8	0	0	0	0	524	1	
9	0	0	0	0	542	2	
10	0	0	0	0	544	1	
11	0	0	0	0	532	2	
12	0	0	0	0	510	3	
13	0	0	0	0	495	1	
14	0	0	0	0	468	1	
15	0	0	0	0	521	2	
0	0	0	0	0	560	2	
1	0	0	0	0	536	2	
2	0	0	0	0	498	1	
3	0	0	0	0	461	1	
4	0	0	0	0	461	3	
5	0	0	0	0	485	1	
6	0	0	0	0	521	1	
7	0	0	0	0	633	3	
8	0	0	0	0	674	3	
9	0	0	0	0	595	2	
10	0	0	0	0	472	1	
11	0	0	0	0	370	0	
12	0	0	0	0	355	1	
13	0	0	0	0	389	1	
14	0	0	0	0	432	1	
15	0	0	0	0	478	1	
0	0	0	0	0	515	1	
1	0	0	0	0	524	2	
2	0	0	0	0	533	2	
3	0	0	0	0	543	2	
4	0	0	0	0	541	2	
5	0	0	0	0	540	2	
6	0	0	0	0	607	2	
7	0	0	0	0	602	2	
8	0	0	0	0	538	1	
9	0	0	0	0	461	1	
10	0	0	0	0	422	1	
11	0	0	0	0	451	1	
12	0	0	0	0	486	3	
13	0	0	0	0	521	2	
14	0	0	0	0	568	2	
15	0	0	0	0	563	2	
0	0	0	0	0	528	1	
1	0	0	0	0	547	2	
2	0	0	0	0	533	1	
3	0	0	0	0	489	1	
4	0	0	0	0	453	3	
5	0	0	0	0	444	1	
6	0	0	0	0	441	1	
7	0	0	0	0	484	1	
8	0	0	0	0	512	1	
9	0	0	0	0	520	1	
10	0	0	0	0	564	1	
11	0	0	0	0	635	3	
12	0	0	0	0	599	4	
13	0	0	0	0	520	1	
14	0	0	0	0	465	1	
15	0	0	0	0	466	1	
0	0	0	0	0	473	1	
1	0	0	0	0	489	1	
2	0	0	0	0	495	1	
3	0	0	0	0	496	1	
4	0	0	0	0	497	3	
5	0	0	0	0	496	1	
6	0	0	0	0	480	1	
7	0	0	0	0	469	1	
8	0	0	0	0	479	1	
9	0	0	0	0	485	1	
10	0	0	0	0	508	1	
11	0	0	0	0	534	2	
12	0	0	0	0	571	4	
13	0	0	0	0	655	3	
14	0	0	0	0	624	3	
15	0	0	0	0	528	2	
0	0	0	0	0	414	0	
1	0	0	0	0	393	1	
2	0	0	0	0	410	1	
3	0	0	0	0	449	1	
4	0	0	0	0	504	3	
5	0	0	0	0	532	2	
6	0	0	0	0	559	2	
7	0	0	0	0	554	2	
8	0	0	0	0	541	1	
9	0	0	0	0	527	2	
10	0	0	0	0	512	1	
11	0	0	0	0	507	2	
12	0	0	0	0	515	3	
13	0	0	0	0	523	2	
14	0	0	0	0	519	1	
15	0	0	0	0	565	1	
0	0	0	0	0	553	1	
1	0	0	0	0	491	1	
2	0	0	0	0	445	1	
3	0	0	0	0	456	1	
4	0	0	0	0	493	3	
5	0	0	0	0	557	2	
6	0	0	0	0	632	3	
7	0	0	0	0	672	2	
8	0	0	0	0	587	2	
9	0	0	0	0	482	1	
10	0	0	0	0	386	1	
11	0	0	0	0	342	0	
12	0	0	0	0	374	2	
13	0	0	0	0	409	1	
14	0	0	0	0	472	1	
15	0	0	0	0	514	1	
0	0	0	0	0	527	1	
1	0	0	0	0	524	2	
2	0	0	0	0	521	1	
3	0	0	0	0	548	2	
4	0	0	0	0	561	4	
5	0	0	0	0	541	1	
6	0	0	0	0	509	1	
7	0	0	0	0	481	1	
8	0	0	0	0	492	1	
9	0	0	0	0	543	2	
10	0	0	0	0	559	2	
11	0	0	0	0	534	2	
12	0	0	0	0	481	3	
13	0	0	0	0	459	1	
14	0	0	0	0	452	1	
15	0	0	0	0	478	1	
0	0	0	0	0	506	1	
1	0	0	0	0	526	2	
2	0	0	0	0	545	2	
3	0	0	0	0	564	2	
4	0	0	0	0	567	3	
5	0	0	0	0	530	2	
6	0	0	0	0	499	1	
7	0	0	0	0	479	1	
8	0	0	0	0	488	1	
9	0	0	0	0	537	2	
10	0	0	0	0	526	2	
11	0	0	0	0	500	1	
12	0	0	0	0	469	2	
13	0	0	0	0	481	1	
14	0	0	0	0	499	1	
15	0	0	0	0	530	2	
0	0	0	0	0	545	2	
1	0	0	0	0	523	1	
2	0	0	0	0	492	1	
3	0	0	0	0	476	1	
4	0	0	0	0	488	2	
5	0	0	0	0	508	1	
6	0	0	0	0	521	1	
7	0	0	0	0	518	1	
8	0	0	0	0	514	1	
9	0	0	0	0	512	1	
10	0	0	0	0	514	1	
11	0	0	0	0	519	2	
12	0	0	0	0	531	3	
13	0	0	0	0	536	1	
14	0	0	0	0	517	1	
15	0	0	0	0	503	1	
0	0	0	0	0	508	1	
1	0	0	0	0	524	2	
2	0	0	0	0	523	2	
3	0	0	0	0	501	2	
4	0	0	0	0	476	3	
5	0	0	0	0	482	1	
6	0	0	0	0	513	1	
7	0	0	0	0	511	1	
8	0	0	0	0	500	1	
9	0	0	0	0	535	2	
10	0	0	0	0	579	2	
11	0	0	0	0	611	3	
12	0	0	0	0	574	4	
13	0	0	0	0	458	1	
14	0	0	0	0	374	1	
15	0	0	0	0	370	0	
0	0	0	0	0	455	1	
1	0	0	0	0	567	2	
2	0	0	0	0	585	2	
3	0	0	0	0	548	2	
4	0	0	0	0	485	3	
5	0	0	0	0	451	1	
6	0	0	0	0	454	1	
7	0	0	0	0	474	0	
8	0	0	0	0	489	1	
9	0	0	0	0	504	1	
10	0	0	0	0	518	1	
11	0	0	0	0	531	2	
12	0	0	0	0	609	4	
13	0	0	0	0	611	2	
14	0	0	0	0	559	2	
15	0	0	0	0	561	1	
0	0	0	0	0	514	1	
1	0	0	0	0	473	1	
2	0	0	0	0	421	1	
3	0	0	0	0	427	1	
4	0	0	0	0	453	3	
5	0	0	0	0	500	1	
6	0	0	0	0	531	2	
7	0	0	0	0	551	2	
8	0	0	0	0	525	1	
9	0	0	0	0	501	1	
10	0	0	0	0	494	1	
11	0	0	0	0	487	1	
12	0	0	0	0	490	3	
13	0	0	0	0	508	1	
14	0	0	0	0	511	1	
15	0	0	0	0	506	1	
0	0	0	0	0	514	1	
1	0	0	0	0	540	2	
2	0	0	0	0	548	2	
3	0	0	0	0	550	2	
4	0	0	0	0	591	4	
5	0	0	0	0	560	2	
6	0	0	0	0	488	1	
7	0	0	0	0	435	1	
8	0	0	0	0	435	1	
9	0	0	0	0	452	1	
10	0	0	0	0	473	1	
11	0	0	0	0	506	2	
12	0	0	0	0	523	3	
13	0	0	0	0	537	2	
14	0	0	0	0	558	2	
15	0	0	0	0	660	3	
0	0	0	0	0	711	3	
1	0	0	0	0	574	2	
2	0	0	0	0	397	0	
3	0	0	0	0	324	0	
4	0	0	0	0	339	2	
5	0	0	0	0	387	1	
6	0	0	0	0	457	1	
7	0	0	0	0	513	1	
8	0	0	0	0	531	1	
9	0	0	0	0	527	2	
10	0	0	0	0	521	1	
11	0	0	0	0	519	2	
12	0	0	0	0	530	3	
13	0	0	0	0	547	2	
14	0	0	0	0	540	2	
15	0	0	0	0	520	2	
0	0	0	0	0	514	1	
1	0	0	0	0	524	2	
2	0	0	0	0	521	1	
3	0	0	0	0	520	1	
4	0	0	0	0	527	2	
5	0	0	0	0	541	2	
6	0	0	0	0	589	2	
7	0	0	0	0	671	3	
8	0	0	0	0	604	2	
9	0	0	0	0	505	1	
10	0	0	0	0	437	1	
11	0	0	0	0	372	0	
12	0	0	0	0	360	1	
13	0	0	0	0	388	1	
14	0	0	0	0	451	1	
15	0	0	0	0	539	2	
0	0	0	0	0	539	1	
1	0	0	0	0	514	1	
2	0	0	0	0	483	1	
3	0	0	0	0	478	1	
4	0	0	0	0	503	1	
5	0	0	0	0	535	2	
6	0	0	0	0	649	3	
7	0	0	0	0	625	3	
8	0	0	0	0	569	2	
9	0	0	0	0	507	1	
10	0	0	0	0	449	0	
11	0	0	0	0	421	1	
12	0	0	0	0	427	3	
13	0	0	0	0	452	1	
14	0	0	0	0	487	1	
15	0	0	0	0	493	1	
0	0	0	0	0	537	1	
1	0	0	0	0	551	2	
2	0	0	0	0	527	1	
3	0	0	0	0	511	2	
4	0	0	0	0	506	3	
5	0	0	0	0	509	1	
6	0	0	0	0	517	1	
7	0	0	0	0	530	2	
8	0	0	0	0	534	1	
9	0	0	0	0	526	1	
10	0	0	0	0	515	1	
11	0	0	0	0	511	2	
12	0	0	0	0	505	3	
13	0	0	0	0	509	1	
14	0	0	0	0	513	1	
15	0	0	0	0	515	1	
0	0	0	0	0	518	1	
1	0	0	0	0	514	1	
2	0	0	0	0	512	1	
3	0	0	0	0	524	2	
4	0	0	0	0	572	4	
5	0	0	0	0	592	2	
6	0	0	0	0	551	2	
7	0	0	0	0	488	1	
8	0	0	0	0	455	1	
9	0	0	0	0	432	1	
10	0	0	0	0	479	1	
11	0	0	0	0	510	2	
12	0	0	0	0	492	3	
13	0	0	0	0	471	1	
14	0	0	0	0	464	1	
15	0	0	0	0	449	1	
0	0	0	0	0	479	1	
1	0	0	0	0	521	2	
2	0	0	0	0	539	2	
3	0	0	0	0	547	2	
4	0	0	0	0	546	3	
5	0	0	0	0	584	2	
6	0	0	0	0	608	2	
7	0	0	0	0	663	2	
8	0	0	0	0	585	2	
9	0	0	0	0	486	1	
10	0	0	0	0	358	0	
11	0	0	0	0	297	0	
12	0	0	0	0	339	2	
13	0	0	0	0	438	1	
14	0	0	0	0	584	2	
15	0	0	0	0	604	1	
0	0	0	0	0	556	2	
1	0	0	0	0	504	1	
2	0	0	0	0	486	1	
3	0	0	0	0	490	1	
4	0	0	0	0	535	3	
5	0	0	0	0	563	2	
6	0	0	0	0	568	2	
7	0	0	0	0	568	1	
8	0	0	0	0	524	1	
9	0	0	0	0	459	1	
10	0	0	0	0	397	1	
11	0	0	0	0	412	1	
12	0	0	0	0	446	3	
13	0	0	0	0	481	1	
14	0	0	0	0	522	1	
15	0	0	0	0	540	2	
0	0	0	0	0	543	1	
1	0	0	0	0	558	2	
2	0	0	0	0	575	2	
3	0	0	0	0	561	2	
4	0	0	0	0	526	3	
5	0	0	0	0	505	1	
6	0	0	0	0	516	1	
7	0	0	0	0	524	2	
8	0	0	0	0	605	2	
9	0	0	0	0	599	2	
10	0	0	0	0	607	2	
11	0	0	0	0	512	1	
12	0	0	0	0	384	3	
13	0	0	0	0	334	0	
14	0	0	0	0	416	1	
15	0	0	0	0	551	2	
0	0	0	0	0	575	2	
1	0	0	0	0	534	2	
2	0	0	0	0	510	1	
3	0	0	0	0	486	1	
4	0	0	0	0	436	1	
5	0	0	0	0	481	1	
6	0	0	0	0	549	2	
7	0	0	0	0	516	1	
8	0	0	0	0	472	1	
9	0	0	0	0	435	1	
10	0	0	0	0	416	1	
11	0	0	0	0	430	1	
12	0	0	0	0	479	2	
13	0	0	0	0	543	2	
14	0	0	0	0	572	2	
15	0	0	0	0	572	2	
0	0	0	0	0	553	2	
1	0	0	0	0	566	2	
2	0	0	0	0	560	2	
3	0	0	0	0	529	2	
4	0	0	0	0	515	3	
5	0	0	0	0	520	1	
6	0	0	0	0	528	2	
7	0	0	0	0	536	2	
8	0	0	0	0	534	1	
9	0	0	0	0	498	1	
10	0	0	0	0	461	1	
11	0	0	0	0	441	1	
12	0	0	0	0	468	3	
13	0	0	0	0	492	1	
14	0	0	0	0	508	1	
15	0	0	0	0	542	2	
0	0	0	0	0	588	2	
1	0	0	0	0	585	2	
2	0	0	0	0	532	2	
3	0	0	0	0	478	1	
4	0	0	0	0	440	3	
5	0	0	0	0	439	1	
6	0	0	0	0	464	1	
7	0	0	0	0	480	1	
8	0	0	0	0	522	1	
9	0	0	0	0	570	2	
10	0	0	0	0	568	2	
11	0	0	0	0	520	2	
12	0	0	0	0	476	3	
13	0	0	0	0	464	1	
14	0	0	0	0	486	1	
15	0	0	0	0	517	1	
0	0	0	0	0	539	1	
1	0	0	0	0	547	2	
2	0	0	0	0	555	2	
3	0	0	0	0	520	2	
4	0	0	0	0	478	3	
5	0	0	0	0	459	1	
6	0	0	0	0	469	1	
7	0	0	0	0	485	0	
8	0	0	0	0	500	1	
9	0	0	0	0	518	1	
10	0	0	0	0	524	2	
11	0	0	0	0	525	2	
12	0	0	0	0	528	3	
13	0	0	0	0	522	1	
14	0	0	0	0	521	1	
15	0	0	0	0	581	1	
0	0	0	0	0	595	2	
1	0	0	0	0	540	2	
2	0	0	0	0	481	1	
3	0	0	0	0	441	1	
4	0	0	0	0	457	3	
5	0	0	0	0	496	1	
6	0	0	0	0	554	2	
7	0	0	0	0	552	2	
8	0	0	0	0	516	1	
9	0	0	0	0	473	1	
10	0	0	0	0	504	1	
11	0	0	0	0	496	1	
12	0	0	0	0	471	3	
13	0	0	0	0	486	1	
14	0	0	0	0	499	1	
15	0	0	0	0	502	1	
0	0	0	0	0	494	1	
1	0	0	0	0	514	1	
2	0	0	0	0	618	3	
3	0	0	0	0	596	2	
4	0	0	0	0	508	3	
5	0	0	0	0	431	1	
6	0	0	0	0	460	1	
7	0	0	0	0	481	1	
8	0	0	0	0	497	1	
9	0	0	0	0	498	1	
10	0	0	0	0	474	1	
11	0	0	0	0	463	1	
12	0	0	0	0	494	3	
13	0	0	0	0	559	2	
14	0	0	0	0	584	2	
15	0	0	0	0	541	2	
0	0	0	0	0	481	1	
1	0	0	0	0	461	1	
2	0	0	0	0	483	1	
3	0	0	0	0	494	1	
4	0	0	0	0	527	3	
5	0	0	0	0	638	3	
6	0	0	0	0	638	3	
7	0	0	0	0	590	2	
8	0	0	0	0	457	1	
9	0	0	0	0	378	0	
10	0	0	0	0	394	0	
11	0	0	0	0	427	1	
12	0	0	0	0	471	1	
13	0	0	0	0	515	1	
14	0	0	0	0	529	2	
15	0	0	0	0	516	1	
0	0	0	0	0	499	1	
1	0	0	0	0	511	1	
2	0	0	0	0	537	2	
3	0	0	0	0	551	2	
4	0	0	0	0	540	2	
5	0	0	0	0	521	1	
6	0	0	0	0	514	1	
7	0	0	0	0	519	1	
8	0	0	0	0	534	1	
9	0	0	0	0	522	1	
10	0	0	0	0	506	1	
11	0	0	0	0	493	1	
12	0	0	0	0	540	2	
13	0	0	0	0	531	2	
14	0	0	0	0	585	2	
15	0	0	0	0	580	2	
0	0	0	0	0	527	1	
1	0	0	0	0	466	1	
2	0	0	0	0	401	0	
3	0	0	0	0	412	1	
4	0	0	0	0	509	3	
5	0	0	0	0	541	2	
6	0	0	0	0	513	1	
7	0	0	0	0	470	1	
8	0	0	0	0	532	1	
9	0	0	0	0	603	2	
10	0	0	0	0	588	1	
11	0	0	0	0	524	2	
12	0	0	0	0	405	3	
13	0	0	0	0	358	0	
14	0	0	0	0	370	1	
15	0	0	0	0	459	1	
0	0	0	0	0	547	2	
1	0	0	0	0	584	2	
2	0	0	0	0	542	1	
3	0	0	0	0	519	2	
4	0	0	0	0	508	3	
5	0	0	0	0	509	1	
6	0	0	0	0	510	1	
7	0	0	0	0	512	1	
8	0	0	0	0	515	1	
9	0	0	0	0	521	1	
10	0	0	0	0	530	2	
11	0	0	0	0	531	2	
12	0	0	0	0	567	4	
13	0	0	0	0	667	3	
14	0	0	0	0	665	3	
15	0	0	0	0	549	2	
0	0	0	0	0	387	0	
1	0	0	0	0	331	0	
2	0	0	0	0	352	0	
3	0	0	0	0	426	1	
4	0	0	0	0	502	3	
5	0	0	0	0	550	2	
6	0	0	0	0	571	2	
7	0	0	0	0	564	2	
8	0	0	0	0	536	1	
9	0	0	0	0	555	2	
10	0	0	0	0	568	2	
11	0	0	0	0	605	2	
12	0	0	0	0	534	3	
13	0	0	0	0	466	1	
14	0	0	0	0	391	1	
15	0	0	0	0	369	0	
0	0	0	0	0	439	1	
1	0	0	0	0	515	1	
2	0	0	0	0	539	2	
3	0	0	0	0	531	2	
4	0	0	0	0	514	3	
5	0	0	0	0	507	1	
6	0	0	0	0	504	1	
7	0	0	0	0	499	1	
8	0	0	0	0	508	1	
9	0	0	0	0	507	1	
10	0	0	0	0	511	2	
11	0	0	0	0	524	2	
12	0	0	0	0	527	3	
13	0	0	0	0	538	2	
14	0	0	0	0	539	2	
15	0	0	0	0	520	1	
0	0	0	0	0	505	1	
1	0	0	0	0	504	1	
2	0	0	0	0	512	1	
3	0	0	0	0	515	2	
4	0	0	0	0	527	3	
5	0	0	0	0	549	1	
6	0	0	0	0	574	2	
7	0	0	0	0	601	2	
8	0	0	0	0	570	2	
9	0	0	0	0	591	2	
10	0	0	0	0	524	1	
11	0	0	0	0	446	1	
12	0	0	0	0	396	3	
13	0	0	0	0	368	0	
14	0	0	0	0	387	1	
15	0	0	0	0	414	1	
0	0	0	0	0	445	1	
1	0	0	0	0	460	1	
2	0	0	0	0	524	2	
3	0	0	0	0	621	3	
4	0	0	0	0	802	6	
5	0	0	0	0	827	4	
6	0	0	0	0	640	3	
7	0	0	0	0	351	0	
8	0	0	0	0	151	0	
9	0	0	0	0	206	0	
10	0	0	0	0	348	0	
11	0	0	0	0	475	1	
12	0	0	0	0	550	3	
13	0	0	0	0	553	2	
14	0	0	0	0	540	2	
15	0	0	0	0	542	2	
0	0	0	0	0	582	2	
1	0	0	0	0	585	2	
2	0	0	0	0	536	2	
3	0	0	0	0	500	1	
4	0	0	0	0	506	2	
5	0	0	0	0	527	2	
6	0	0	0	0	546	2	
7	0	0	0	0	558	2	
8	0	0	0	0	539	1	
9	0	0	0	0	510	1	
10	0	0	0	0	509	1	
11	0	0	0	0	568	2	
12	0	0	0	0	599	3	
13	0	0	0	0	552	2	
14	0	0	0	0	546	2	
15	0	0	0	0	506	1	
0	0	0	0	0	447	1	
1	0	0	0	0	408	1	
2	0	0	0	0	395	1	
3	0	0	0	0	417	1	
4	0	0	0	0	476	3	
5	0	0	0	0	519	1	
6	0	0	0	0	531	2	
7	0	0	0	0	565	2	
8	0	0	0	0	599	2	
9	0	0	0	0	599	2	
10	0	0	0	0	532	2	
11	0	0	0	0	455	1	
12	0	0	0	0	414	3	
13	0	0	0	0	435	1	
14	0	0	0	0	505	1	
15	0	0	0	0	505	1	
0	0	0	0	0	505	1	
1	0	0	0	0	519	1	
2	0	0	0	0	536	2	
3	0	0	0	0	576	2	
4	0	0	0	0	585	4	
5	0	0	0	0	546	2	
6	0	0	0	0	474	1	
7	0	0	0	0	443	0	
8	0	0	0	0	462	1	
9	0	0	0	0	551	2	
10	0	0	0	0	583	2	
11	0	0	0	0	543	2	
12	0	0	0	0	503	3	
13	0	0	0	0	467	1	
14	0	0	0	0	435	1	
15	0	0	0	0	430	0	
0	0	0	0	0	451	1	
1	0	0	0	0	480	1	
2	0	0	0	0	513	1	
3	0	0	0	0	615	3	
4	0	0	0	0	672	5	
5	0	0	0	0	688	3	
6	0	0	0	0	576	2	
7	0	0	0	0	543	1	
8	0	0	0	0	437	1	
9	0	0	0	0	387	1	
10	0	0	0	0	340	0	
11	0	0	0	0	362	0	
12	0	0	0	0	421	3	
13	0	0	0	0	458	1	
14	0	0	0	0	504	1	
15	0	0	0	0	549	2	
0	0	0	0	0	559	1	
1	0	0	0	0	535	2	
2	0	0	0	0	556	2	
3	0	0	0	0	568	2	
4	0	0	0	0	548	3	
5	0	0	0	0	504	1	
6	0	0	0	0	475	1	
7	0	0	0	0	468	1	
8	0	0	0	0	533	1	
9	0	0	0	0	583	2	
10	0	0	0	0	536	2	
11	0	0	0	0	479	1	
12	0	0	0	0	443	3	
13	0	0	0	0	474	1	
14	0	0	0	0	517	1	
15	0	0	0	0	542	2	
0	0	0	0	0	535	1	
1	0	0	0	0	541	2	
2	0	0	0	0	521	1	
3	0	0	0	0	512	2	
4	0	0	0	0	504	3	
5	0	0	0	0	500	1	
6	0	0	0	0	504	1	
7	0	0	0	0	513	1	
8	0	0	0	0	515	1	
9	0	0	0	0	517	1	
10	0	0	0	0	523	1	
11	0	0	0	0	537	2	
12	0	0	0	0	531	3	
13	0	0	0	0	533	2	
14	0	0	0	0	520	2	
15	0	0	0	0	552	2	
0	0	0	0	0	566	2	
1	0	0	0	0	523	1	
2	0	0	0	0	476	1	
3	0	0	0	0	447	1	
4	0	0	0	0	423	3	
5	0	0	0	0	420	1	
6	0	0	0	0	456	1	
7	0	0	0	0	489	1	
8	0	0	0	0	507	1	
9	0	0	0	0	524	2	
10	0	0	0	0	556	2	
11	0	0	0	0	554	2	
12	0	0	0	0	529	2	
13	0	0	0	0	503	1	
14	0	0	0	0	521	2	
15	0	0	0	0	635	3	
0	0	0	0	0	625	2	
1	0	0	0	0	531	2	
2	0	0	0	0	478	1	
3	0	0	0	0	418	1	
4	0	0	0	0	415	1	
5	0	0	0	0	425	1	
6	0	0	0	0	420	1	
7	0	0	0	0	463	1	
8	0	0	0	0	520	1	
9	0	0	0	0	548	2	
10	0	0	0	0	543	2	
11	0	0	0	0	519	1	
12	0	0	0	0	497	3	
13	0	0	0	0	506	1	
14	0	0	0	0	603	2	
15	0	0	0	0	617	3	
0	0	0	0	0	583	2	
1	0	0	0	0	520	1	
2	0	0	0	0	475	1	
3	0	0	0	0	448	1	
4	0	0	0	0	420	3	
5	0	0	0	0	434	1	
6	0	0	0	0	453	1	
7	0	0	0	0	510	1	
8	0	0	0	0	575	2	
9	0	0	0	0	587	2	
10	0	0	0	0	561	1	
11	0	0	0	0	517	2	
12	0	0	0	0	484	3	
13	0	0	0	0	472	1	
14	0	0	0	0	522	2	
15	0	0	0	0	564	2	
0	0	0	0	0	520	1	
1	0	0	0	0	449	1	
2	0	0	0	0	419	1	
3	0	0	0	0	449	1	
4	0	0	0	0	483	3	
5	0	0	0	0	530	2	
6	0	0	0	0	555	2	
7	0	0	0	0	546	2	
8	0	0	0	0	572	1	
9	0	0	0	0	592	2	
10	0	0	0	0	534	2	
11	0	0	0	0	471	1	
12	0	0	0	0	424	3	
13	0	0	0	0	448	1	
14	0	0	0	0	476	1	
15	0	0	0	0	486	1	
0	0	0	0	0	491	1	
1	0	0	0	0	502	1	
2	0	0	0	0	519	1	
3	0	0	0	0	529	2	
4	0	0	0	0	527	3	
5	0	0	0	0	524	2	
6	0	0	0	0	548	2	
7	0	0	0	0	616	1	
8	0	0	0	0	611	2	
9	0	0	0	0	624	2	
10	0	0	0	0	520	1	
11	0	0	0	0	423	1	
12	0	0	0	0	368	2	
13	0	0	0	0	364	0	
14	0	0	0	0	439	1	
15	0	0	0	0	518	1	
0	0	0	0	0	545	2	
1	0	0	0	0	537	2	
2	0	0	0	0	535	2	
3	0	0	0	0	540	2	
4	0	0	0	0	517	3	
5	0	0	0	0	458	1	
6	0	0	0	0	446	1	
7	0	0	0	0	480	0	
8	0	0	0	0	524	1	
9	0	0	0	0	575	2	
10	0	0	0	0	573	2	
11	0	0	0	0	579	2	
12	0	0	0	0	676	5	
13	0	0	0	0	627	2	
14	0	0	0	0	505	1	
15	0	0	0	0	380	1	
0	0	0	0	0	316	0	
1	0	0	0	0	364	0	
2	0	0	0	0	438	1	
3	0	0	0	0	514	2	
4	0	0	0	0	518	3	
5	0	0	0	0	579	2	
6	0	0	0	0	578	2	
7	0	0	0	0	543	2	
8	0	0	0	0	501	1	
9	0	0	0	0	463	1	
10	0	0	0	0	499	1	
11	0	0	0	0	545	2	
12	0	0	0	0	553	3	
13	0	0	0	0	515	1	
14	0	0	0	0	499	1	
15	0	0	0	0	508	1	
0	0	0	0	0	515	1	
1	0	0	0	0	519	1	
2	0	0	0	0	494	1	
3	0	0	0	0	496	1	
4	0	0	0	0	518	2	
5	0	0	0	0	521	1	
6	0	0	0	0	629	3	
7	0	0	0	0	655	3	
8	0	0	0	0	575	2	
9	0	0	0	0	510	1	
10	0	0	0	0	508	1	
11	0	0	0	0	451	1	
12	0	0	0	0	443	2	
13	0	0	0	0	451	1	
14	0	0	0	0	421	1	
15	0	0	0	0	337	0	
0	0	0	0	0	330	0	
1	0	0	0	0	379	1	
